{
  "aor": 0.0007551333333333334,
  "aqi": 0.014692056666666667,
  "bids_meta": {
    "AcquisitionMatrixPE": 188,
    "AcquisitionNumber": 1,
    "AcquisitionTime": "13:32:54.265000",
    "BandwidthPerPixelPhaseEncode": 19.46,
    "BaseResolution": 188,
    "ConversionSoftware": "dcm2niix",
    "ConversionSoftwareVersion": "v1.0.20180606 GCC4.8.5",
    "DelayTime": 1.2,
    "DerivedVendorReportedEchoSpacing": 0.000820013,
    "DeviceSerialNumber": "18930",
    "DwellTime": 1.9e-06,
    "EchoTime": 0.02,
    "EffectiveEchoSpacing": 0.000273338,
    "FlipAngle": 80,
    "ImageComments": "Unaliased_MB2_PE2",
    "ImageOrientationPatientDICOM": [
      0.999367,
      0.0250678,
      0.0252539,
      0.0224824,
      0.105276,
      -0.994189
    ],
    "ImageType": [
      "ORIGINAL",
      "PRIMARY",
      "M",
      "MB",
      "ND",
      "MOSAIC"
    ],
    "InPlanePhaseEncodingDirectionDICOM": "COL",
    "InstitutionAddress": "Oxfordlaan_55_Maastricht_22AAA2_Limburg_NL_6229_EV",
    "InstitutionName": "Scannexus",
    "InstitutionalDepartmentName": "MRI_7T",
    "MRAcquisitionType": "2D",
    "MagneticFieldStrength": 6.98,
    "Manufacturer": "Siemens",
    "ManufacturersModelName": "Investigational_Device_7T",
    "Modality": "MR",
    "MultibandAccelerationFactor": 2,
    "ParallelReductionFactorInPlane": 3,
    "PartialFourier": 0.75,
    "PatientPosition": "HFS",
    "PercentPhaseFOV": 100,
    "PhaseEncodingDirection": "j",
    "PhaseEncodingSteps": 141,
    "PhaseResolution": 1,
    "PixelBandwidth": 1400,
    "ProcedureStepDescription": "FeDem_Faruk",
    "ProtocolName": "cmrr_mbep2d_bold_AP_run9",
    "PulseSequenceDetails": "%CustomerSeq%_cmrr_mbep2d_bold",
    "ReceiveCoilName": "32Ch_Head_7T",
    "ReconMatrixPE": 188,
    "RepetitionTime": 2.6,
    "SAR": 0.0885874,
    "ScanOptions": "PFP_FS",
    "ScanningSequence": "EP",
    "SequenceName": "epfid2d1_188",
    "SequenceVariant": "SK_SS",
    "SeriesDescription": "cmrr_mbep2d_bold_AP_run9",
    "SeriesNumber": 22,
    "ShimSetting": [
      150,
      -120,
      519,
      382,
      159,
      49,
      -160,
      140
    ],
    "SliceThickness": 1.1,
    "SliceTiming": [
      0,
      0.735,
      0.0625,
      0.795,
      0.1225,
      0.855,
      0.185,
      0.9175,
      0.245,
      0.9775,
      0.3075,
      1.04,
      0.3675,
      1.1,
      0.4275,
      1.1625,
      0.49,
      1.2225,
      0.55,
      1.285,
      0.6125,
      1.345,
      0.6725,
      0,
      0.735,
      0.0625,
      0.795,
      0.1225,
      0.855,
      0.185,
      0.9175,
      0.245,
      0.9775,
      0.3075,
      1.04,
      0.3675,
      1.1,
      0.4275,
      1.1625,
      0.49,
      1.2225,
      0.55,
      1.285,
      0.6125,
      1.345,
      0.6725
    ],
    "SoftwareVersions": "syngo_MR_B17",
    "SpacingBetweenSlices": 1.1,
    "StationName": "MRC18930",
    "TaskName": "auditory",
    "TotalReadoutTime": 0.0511141,
    "TxRefAmp": 240,
    "dataset": "ds001942",
    "dcmmeta_affine": [
      [
        -1.0950508117675781,
        0.02463494800031185,
        0.03033878467977047,
        101.2935791015625
      ],
      [
        -0.027467874810099602,
        0.11535520106554031,
        -1.0935395956039429,
        35.535362243652344
      ],
      [
        0.027671849355101585,
        1.0893772840499878,
        0.1151098757982254,
        -123.33378601074219
      ],
      [
        0.0,
        0.0,
        0.0,
        1.0
      ]
    ],
    "dcmmeta_reorient_transform": [
      [
        0.0,
        -1.0,
        0.0,
        187.0
      ],
      [
        1.0,
        0.0,
        0.0,
        0.0
      ],
      [
        0.0,
        0.0,
        1.0,
        0.0
      ],
      [
        0.0,
        0.0,
        0.0,
        1.0
      ]
    ],
    "dcmmeta_shape": [
      188,
      188,
      46,
      150
    ],
    "dcmmeta_slice_dim": 2,
    "dcmmeta_version": 0.6,
    "global": {
      "const": {
        "AcquisitionMatrix": [
          188,
          0,
          0,
          188
        ],
        "AngioFlag": "N",
        "BitsAllocated": 16,
        "BitsStored": 12,
        "Columns": 1316,
        "EchoNumbers": 1,
        "EchoTime": 20.0,
        "EchoTrainLength": 1,
        "FlipAngle": 80.0,
        "HighBit": 11,
        "ImageOrientationPatient": [
          0.9993667227694,
          0.02506776778243,
          0.02525391929116,
          0.02248237943943,
          0.10527561308265,
          -0.9941889095664
        ],
        "ImagePositionPatient": [
          -737.40308492712,
          -137.65899729473,
          679.18161313505
        ],
        "ImageType": [
          "ORIGINAL",
          "PRIMARY",
          "M",
          "MB",
          "ND",
          "MOSAIC"
        ],
        "ImagedNucleus": "1H",
        "ImagingFrequency": 297.205656,
        "InPlanePhaseEncodingDirection": "COL",
        "LargestImagePixelValue": 4095,
        "MRAcquisitionType": "2D",
        "MagneticFieldStrength": 6.98,
        "Manufacturer": "SIEMENS",
        "ManufacturerModelName": "Investigational_Device_7T",
        "Modality": "MR",
        "NumberOfAverages": 1.0,
        "NumberOfPhaseEncodingSteps": 141,
        "PercentPhaseFieldOfView": 100.0,
        "PercentSampling": 100.0,
        "PerformedProcedureStepStartTime": "115818.375000",
        "PhotometricInterpretation": "MONOCHROME2",
        "PixelBandwidth": 1400.0,
        "PixelRepresentation": 0,
        "PixelSpacing": [
          1.0957447290421,
          1.0957447290421
        ],
        "ProtocolName": "cmrr_mbep2d_bold_AP_run9",
        "RepetitionTime": 2600.0,
        "Rows": 1316,
        "SAR": 0.0885874253597,
        "SamplesPerPixel": 1,
        "ScanOptions": [
          "PFP",
          "FS"
        ],
        "ScanningSequence": "EP",
        "SequenceName": "epfid2d1_188",
        "SequenceVariant": [
          "SK",
          "SS"
        ],
        "SeriesDescription": "cmrr_mbep2d_bold_AP_run9",
        "SeriesNumber": 22,
        "SeriesTime": "133303.359000",
        "SliceLocation": -45.439224808025,
        "SliceThickness": 1.1000000238419,
        "SmallestImagePixelValue": 0,
        "SoftwareVersions": "syngo MR B17",
        "SpacingBetweenSlices": 1.0999998200792,
        "SpecificCharacterSet": "ISO_IR 100",
        "StudyID": "1",
        "StudyTime": "115818.265000",
        "TransmitCoilName": "32Ch_Head_7T",
        "VariableFlipAngleFlag": "N",
        "WindowCenterWidthExplanation": "Algo1",
        "dBdt": 0.0
      },
      "slices": {}
    },
    "modality": "bold",
    "run_id": 9,
    "session_id": "SES03",
    "subject_id": "S02",
    "task_id": "auditory",
    "time": {
      "samples": {
        "AcquisitionNumber": [
          1,
          2,
          3,
          4,
          5,
          6,
          7,
          8,
          9,
          10,
          11,
          12,
          13,
          14,
          15,
          16,
          17,
          18,
          19,
          20,
          21,
          22,
          23,
          24,
          25,
          26,
          27,
          28,
          29,
          30,
          31,
          32,
          33,
          34,
          35,
          36,
          37,
          38,
          39,
          40,
          41,
          42,
          43,
          44,
          45,
          46,
          47,
          48,
          49,
          50,
          51,
          52,
          53,
          54,
          55,
          56,
          57,
          58,
          59,
          60,
          61,
          62,
          63,
          64,
          65,
          66,
          67,
          68,
          69,
          70,
          71,
          72,
          73,
          74,
          75,
          76,
          77,
          78,
          79,
          80,
          81,
          82,
          83,
          84,
          85,
          86,
          87,
          88,
          89,
          90,
          91,
          92,
          93,
          94,
          95,
          96,
          97,
          98,
          99,
          100,
          101,
          102,
          103,
          104,
          105,
          106,
          107,
          108,
          109,
          110,
          111,
          112,
          113,
          114,
          115,
          116,
          117,
          118,
          119,
          120,
          121,
          122,
          123,
          124,
          125,
          126,
          127,
          128,
          129,
          130,
          131,
          132,
          133,
          134,
          135,
          136,
          137,
          138,
          139,
          140,
          141,
          142,
          143,
          144,
          145,
          146,
          147,
          148,
          149,
          150
        ],
        "AcquisitionTime": [
          "133254.265000",
          "133256.875000",
          "133259.487500",
          "133302.097500",
          "133304.707500",
          "133307.317500",
          "133309.927500",
          "133312.540000",
          "133315.150000",
          "133317.760000",
          "133320.370000",
          "133322.980000",
          "133325.590000",
          "133328.202500",
          "133330.812500",
          "133333.422500",
          "133336.032500",
          "133338.642500",
          "133341.252500",
          "133343.865000",
          "133346.475000",
          "133349.085000",
          "133351.695000",
          "133354.305000",
          "133356.917500",
          "133359.527500",
          "133402.137500",
          "133404.747500",
          "133407.357500",
          "133409.967500",
          "133412.580000",
          "133415.190000",
          "133417.800000",
          "133420.410000",
          "133423.020000",
          "133425.630000",
          "133428.242500",
          "133430.852500",
          "133433.462500",
          "133436.072500",
          "133438.682500",
          "133441.295000",
          "133443.905000",
          "133446.515000",
          "133449.125000",
          "133451.735000",
          "133454.345000",
          "133456.957500",
          "133459.567500",
          "133502.177500",
          "133504.787500",
          "133507.397500",
          "133510.007500",
          "133512.620000",
          "133515.230000",
          "133517.840000",
          "133520.450000",
          "133523.060000",
          "133525.672500",
          "133528.282500",
          "133530.892500",
          "133533.502500",
          "133536.112500",
          "133538.722500",
          "133541.335000",
          "133543.945000",
          "133546.555000",
          "133549.165000",
          "133551.775000",
          "133554.385000",
          "133556.997500",
          "133559.607500",
          "133602.217500",
          "133604.827500",
          "133607.437500",
          "133610.050000",
          "133612.660000",
          "133615.270000",
          "133617.880000",
          "133620.490000",
          "133623.100000",
          "133625.712500",
          "133628.322500",
          "133630.932500",
          "133633.542500",
          "133636.152500",
          "133638.765000",
          "133641.375000",
          "133643.985000",
          "133646.595000",
          "133649.205000",
          "133651.815000",
          "133654.427500",
          "133657.037500",
          "133659.647500",
          "133702.257500",
          "133704.867500",
          "133707.477500",
          "133710.090000",
          "133712.700000",
          "133715.310000",
          "133717.920000",
          "133720.530000",
          "133723.142500",
          "133725.752500",
          "133728.362500",
          "133730.972500",
          "133733.582500",
          "133736.192500",
          "133738.805000",
          "133741.415000",
          "133744.025000",
          "133746.635000",
          "133749.245000",
          "133751.855000",
          "133754.467500",
          "133757.077500",
          "133759.687500",
          "133802.297500",
          "133804.907500",
          "133807.520000",
          "133810.130000",
          "133812.740000",
          "133815.350000",
          "133817.960000",
          "133820.570000",
          "133823.182500",
          "133825.792500",
          "133828.402500",
          "133831.012500",
          "133833.622500",
          "133836.232500",
          "133838.845000",
          "133841.455000",
          "133844.065000",
          "133846.675000",
          "133849.285000",
          "133851.897500",
          "133854.507500",
          "133857.117500",
          "133859.727500",
          "133902.337500",
          "133904.947500",
          "133907.560000",
          "133910.170000",
          "133912.780000",
          "133915.390000",
          "133918.000000",
          "133920.610000",
          "133923.222500"
        ],
        "ContentTime": [
          "133303.359000",
          "133303.859000",
          "133304.359000",
          "133306.359000",
          "133308.859000",
          "133311.359000",
          "133314.359000",
          "133316.859000",
          "133319.359000",
          "133321.859000",
          "133324.859000",
          "133327.359000",
          "133329.859000",
          "133332.359000",
          "133334.859000",
          "133337.359000",
          "133340.359000",
          "133342.859000",
          "133345.359000",
          "133347.859000",
          "133350.859000",
          "133353.359000",
          "133355.859000",
          "133358.359000",
          "133400.859000",
          "133403.859000",
          "133406.359000",
          "133408.859000",
          "133411.359000",
          "133413.859000",
          "133416.859000",
          "133419.359000",
          "133421.859000",
          "133424.359000",
          "133426.859000",
          "133429.859000",
          "133432.359000",
          "133434.859000",
          "133437.359000",
          "133439.859000",
          "133442.859000",
          "133445.359000",
          "133447.859000",
          "133450.359000",
          "133452.859000",
          "133455.359000",
          "133458.359000",
          "133500.859000",
          "133503.359000",
          "133505.859000",
          "133508.859000",
          "133511.359000",
          "133513.859000",
          "133516.359000",
          "133518.859000",
          "133521.859000",
          "133524.359000",
          "133526.859000",
          "133529.359000",
          "133531.859000",
          "133534.859000",
          "133537.359000",
          "133539.859000",
          "133542.359000",
          "133544.859000",
          "133547.859000",
          "133550.359000",
          "133552.859000",
          "133555.359000",
          "133557.859000",
          "133600.359000",
          "133603.359000",
          "133605.859000",
          "133608.359000",
          "133610.859000",
          "133613.859000",
          "133616.359000",
          "133618.859000",
          "133621.359000",
          "133623.859000",
          "133626.859000",
          "133629.359000",
          "133631.859000",
          "133634.359000",
          "133636.859000",
          "133639.359000",
          "133642.359000",
          "133644.859000",
          "133647.359000",
          "133649.859000",
          "133652.859000",
          "133655.359000",
          "133657.859000",
          "133700.359000",
          "133702.859000",
          "133705.359000",
          "133708.359000",
          "133710.859000",
          "133713.359000",
          "133715.859000",
          "133718.859000",
          "133721.359000",
          "133723.859000",
          "133726.359000",
          "133728.859000",
          "133731.859000",
          "133734.359000",
          "133736.859000",
          "133739.359000",
          "133741.859000",
          "133744.859000",
          "133747.359000",
          "133749.859000",
          "133752.359000",
          "133754.859000",
          "133757.859000",
          "133800.359000",
          "133802.859000",
          "133805.359000",
          "133807.859000",
          "133810.859000",
          "133813.359000",
          "133815.859000",
          "133818.359000",
          "133820.859000",
          "133823.859000",
          "133826.359000",
          "133828.859000",
          "133831.359000",
          "133833.859000",
          "133836.859000",
          "133839.359000",
          "133841.859000",
          "133844.359000",
          "133846.859000",
          "133849.859000",
          "133852.359000",
          "133854.859000",
          "133857.359000",
          "133859.859000",
          "133902.859000",
          "133905.359000",
          "133907.859000",
          "133910.359000",
          "133912.859000",
          "133915.859000",
          "133918.359000",
          "133920.859000",
          "133923.359000",
          "133930.734000"
        ],
        "InstanceCreationTime": [
          "133303.359000",
          "133303.859000",
          "133304.359000",
          "133306.359000",
          "133308.859000",
          "133311.359000",
          "133314.359000",
          "133316.859000",
          "133319.359000",
          "133321.859000",
          "133324.859000",
          "133327.359000",
          "133329.859000",
          "133332.359000",
          "133334.859000",
          "133337.359000",
          "133340.359000",
          "133342.859000",
          "133345.359000",
          "133347.859000",
          "133350.859000",
          "133353.359000",
          "133355.859000",
          "133358.359000",
          "133400.859000",
          "133403.859000",
          "133406.359000",
          "133408.859000",
          "133411.359000",
          "133413.859000",
          "133416.859000",
          "133419.359000",
          "133421.859000",
          "133424.359000",
          "133426.859000",
          "133429.859000",
          "133432.359000",
          "133434.859000",
          "133437.359000",
          "133439.859000",
          "133442.859000",
          "133445.359000",
          "133447.859000",
          "133450.359000",
          "133452.859000",
          "133455.359000",
          "133458.359000",
          "133500.859000",
          "133503.359000",
          "133505.859000",
          "133508.859000",
          "133511.359000",
          "133513.859000",
          "133516.359000",
          "133518.859000",
          "133521.859000",
          "133524.359000",
          "133526.859000",
          "133529.359000",
          "133531.859000",
          "133534.859000",
          "133537.359000",
          "133539.859000",
          "133542.359000",
          "133544.859000",
          "133547.859000",
          "133550.359000",
          "133552.859000",
          "133555.359000",
          "133557.859000",
          "133600.359000",
          "133603.359000",
          "133605.859000",
          "133608.359000",
          "133610.859000",
          "133613.859000",
          "133616.359000",
          "133618.859000",
          "133621.359000",
          "133623.859000",
          "133626.859000",
          "133629.359000",
          "133631.859000",
          "133634.359000",
          "133636.859000",
          "133639.359000",
          "133642.359000",
          "133644.859000",
          "133647.359000",
          "133649.859000",
          "133652.859000",
          "133655.359000",
          "133657.859000",
          "133700.359000",
          "133702.859000",
          "133705.359000",
          "133708.359000",
          "133710.859000",
          "133713.359000",
          "133715.859000",
          "133718.859000",
          "133721.359000",
          "133723.859000",
          "133726.359000",
          "133728.859000",
          "133731.859000",
          "133734.359000",
          "133736.859000",
          "133739.359000",
          "133741.859000",
          "133744.859000",
          "133747.359000",
          "133749.859000",
          "133752.359000",
          "133754.859000",
          "133757.859000",
          "133800.359000",
          "133802.859000",
          "133805.359000",
          "133807.859000",
          "133810.859000",
          "133813.359000",
          "133815.859000",
          "133818.359000",
          "133820.859000",
          "133823.859000",
          "133826.359000",
          "133828.859000",
          "133831.359000",
          "133833.859000",
          "133836.859000",
          "133839.359000",
          "133841.859000",
          "133844.359000",
          "133846.859000",
          "133849.859000",
          "133852.359000",
          "133854.859000",
          "133857.359000",
          "133859.859000",
          "133902.859000",
          "133905.359000",
          "133907.859000",
          "133910.359000",
          "133912.859000",
          "133915.859000",
          "133918.359000",
          "133920.859000",
          "133923.359000",
          "133930.734000"
        ],
        "InstanceNumber": [
          1,
          2,
          3,
          4,
          5,
          6,
          7,
          8,
          9,
          10,
          11,
          12,
          13,
          14,
          15,
          16,
          17,
          18,
          19,
          20,
          21,
          22,
          23,
          24,
          25,
          26,
          27,
          28,
          29,
          30,
          31,
          32,
          33,
          34,
          35,
          36,
          37,
          38,
          39,
          40,
          41,
          42,
          43,
          44,
          45,
          46,
          47,
          48,
          49,
          50,
          51,
          52,
          53,
          54,
          55,
          56,
          57,
          58,
          59,
          60,
          61,
          62,
          63,
          64,
          65,
          66,
          67,
          68,
          69,
          70,
          71,
          72,
          73,
          74,
          75,
          76,
          77,
          78,
          79,
          80,
          81,
          82,
          83,
          84,
          85,
          86,
          87,
          88,
          89,
          90,
          91,
          92,
          93,
          94,
          95,
          96,
          97,
          98,
          99,
          100,
          101,
          102,
          103,
          104,
          105,
          106,
          107,
          108,
          109,
          110,
          111,
          112,
          113,
          114,
          115,
          116,
          117,
          118,
          119,
          120,
          121,
          122,
          123,
          124,
          125,
          126,
          127,
          128,
          129,
          130,
          131,
          132,
          133,
          134,
          135,
          136,
          137,
          138,
          139,
          140,
          141,
          142,
          143,
          144,
          145,
          146,
          147,
          148,
          149,
          150
        ],
        "WindowCenter": [
          951.0,
          950.0,
          949.0,
          948.0,
          947.0,
          947.0,
          947.0,
          947.0,
          947.0,
          949.0,
          948.0,
          949.0,
          949.0,
          948.0,
          947.0,
          947.0,
          949.0,
          948.0,
          947.0,
          950.0,
          948.0,
          946.0,
          947.0,
          949.0,
          948.0,
          948.0,
          947.0,
          947.0,
          946.0,
          948.0,
          950.0,
          950.0,
          947.0,
          946.0,
          948.0,
          950.0,
          948.0,
          947.0,
          948.0,
          949.0,
          948.0,
          948.0,
          949.0,
          948.0,
          948.0,
          947.0,
          948.0,
          948.0,
          947.0,
          949.0,
          949.0,
          948.0,
          948.0,
          948.0,
          948.0,
          948.0,
          949.0,
          949.0,
          949.0,
          949.0,
          951.0,
          949.0,
          948.0,
          950.0,
          948.0,
          947.0,
          947.0,
          949.0,
          946.0,
          947.0,
          949.0,
          948.0,
          947.0,
          947.0,
          949.0,
          948.0,
          947.0,
          947.0,
          948.0,
          949.0,
          948.0,
          947.0,
          948.0,
          950.0,
          949.0,
          950.0,
          949.0,
          947.0,
          948.0,
          950.0,
          949.0,
          949.0,
          950.0,
          950.0,
          949.0,
          949.0,
          950.0,
          950.0,
          949.0,
          948.0,
          948.0,
          951.0,
          949.0,
          949.0,
          950.0,
          949.0,
          949.0,
          949.0,
          948.0,
          949.0,
          950.0,
          951.0,
          951.0,
          949.0,
          948.0,
          949.0,
          949.0,
          949.0,
          950.0,
          950.0,
          950.0,
          950.0,
          951.0,
          951.0,
          950.0,
          950.0,
          949.0,
          948.0,
          949.0,
          951.0,
          950.0,
          949.0,
          949.0,
          951.0,
          950.0,
          949.0,
          950.0,
          951.0,
          950.0,
          948.0,
          951.0,
          950.0,
          949.0,
          948.0,
          951.0,
          948.0,
          947.0,
          949.0,
          948.0,
          948.0
        ],
        "WindowWidth": [
          2201.0,
          2198.0,
          2196.0,
          2192.0,
          2189.0,
          2191.0,
          2190.0,
          2188.0,
          2191.0,
          2195.0,
          2194.0,
          2197.0,
          2198.0,
          2193.0,
          2190.0,
          2191.0,
          2196.0,
          2192.0,
          2191.0,
          2200.0,
          2193.0,
          2185.0,
          2187.0,
          2195.0,
          2192.0,
          2191.0,
          2189.0,
          2188.0,
          2187.0,
          2192.0,
          2199.0,
          2199.0,
          2190.0,
          2187.0,
          2193.0,
          2197.0,
          2189.0,
          2188.0,
          2194.0,
          2194.0,
          2193.0,
          2192.0,
          2194.0,
          2193.0,
          2191.0,
          2191.0,
          2193.0,
          2193.0,
          2190.0,
          2195.0,
          2197.0,
          2192.0,
          2192.0,
          2193.0,
          2193.0,
          2191.0,
          2196.0,
          2197.0,
          2194.0,
          2196.0,
          2202.0,
          2196.0,
          2192.0,
          2198.0,
          2192.0,
          2187.0,
          2191.0,
          2193.0,
          2187.0,
          2191.0,
          2196.0,
          2193.0,
          2190.0,
          2190.0,
          2195.0,
          2193.0,
          2188.0,
          2188.0,
          2192.0,
          2195.0,
          2192.0,
          2189.0,
          2193.0,
          2198.0,
          2196.0,
          2199.0,
          2193.0,
          2189.0,
          2194.0,
          2199.0,
          2195.0,
          2194.0,
          2198.0,
          2198.0,
          2194.0,
          2197.0,
          2199.0,
          2200.0,
          2196.0,
          2192.0,
          2194.0,
          2200.0,
          2195.0,
          2198.0,
          2197.0,
          2196.0,
          2195.0,
          2194.0,
          2192.0,
          2196.0,
          2197.0,
          2201.0,
          2203.0,
          2195.0,
          2190.0,
          2196.0,
          2196.0,
          2195.0,
          2199.0,
          2199.0,
          2198.0,
          2198.0,
          2202.0,
          2202.0,
          2198.0,
          2198.0,
          2196.0,
          2193.0,
          2197.0,
          2202.0,
          2199.0,
          2195.0,
          2195.0,
          2201.0,
          2197.0,
          2192.0,
          2197.0,
          2200.0,
          2199.0,
          2194.0,
          2201.0,
          2196.0,
          2194.0,
          2194.0,
          2203.0,
          2192.0,
          2189.0,
          2194.0,
          2193.0,
          2192.0
        ]
      },
      "slices": {}
    }
  },
  "dummy_trs": 0,
  "dvars_nstd": 77.24520571926172,
  "dvars_std": 1.047326418389261,
  "dvars_vstd": 1.0091641132885905,
  "efc": 0.5877247927839907,
  "fber": 208.76214599609375,
  "fd_mean": 0.07948695785848908,
  "fd_num": 4,
  "fd_perc": 2.6666666666666665,
  "fwhm_avg": 3.127484105696798,
  "fwhm_x": 2.985193460943824,
  "fwhm_y": 2.990176373346035,
  "fwhm_z": 3.4070824828005346,
  "gcor": 0.00147135,
  "gsr_x": 0.05126618221402168,
  "gsr_y": 0.011412650346755981,
  "provenance": {
    "md5sum": "484f13a5ea9825477795f901fe6ae3e7",
    "settings": {
      "fd_thres": 0.2,
      "testing": false
    },
    "software": "mriqc",
    "version": "23.0.1",
    "webapi_port": null,
    "webapi_url": "https://mriqc.nimh.nih.gov/api/v1"
  },
  "size_t": 150,
  "size_x": 188,
  "size_y": 188,
  "size_z": 46,
  "snr": 1.9391202410583335,
  "spacing_tr": 2.5999999046325684,
  "spacing_x": 1.0957447290420532,
  "spacing_y": 1.0957447290420532,
  "spacing_z": 1.0999997854232788,
  "summary_bg_k": 41.629297583192596,
  "summary_bg_mad": 40.60353645251679,
  "summary_bg_mean": 122.88758850097656,
  "summary_bg_median": 68.4800033569336,
  "summary_bg_n": 1018330.0,
  "summary_bg_p05": 34.58000183105469,
  "summary_bg_p95": 360.11034851074174,
