{
  "aor": 0.0006706,
  "aqi": 0.01549575266666667,
  "bids_meta": {
    "AcquisitionMatrixPE": 188,
    "AcquisitionNumber": 1,
    "AcquisitionTime": "13:07:29.165000",
    "BandwidthPerPixelPhaseEncode": 19.46,
    "BaseResolution": 188,
    "ConversionSoftware": "dcm2niix",
    "ConversionSoftwareVersion": "v1.0.20180606 GCC4.8.5",
    "DelayTime": 1.2,
    "DerivedVendorReportedEchoSpacing": 0.000820013,
    "DeviceSerialNumber": "18930",
    "DwellTime": 1.9e-06,
    "EchoTime": 0.02,
    "EffectiveEchoSpacing": 0.000273338,
    "FlipAngle": 80,
    "ImageComments": "Unaliased_MB2_PE2",
    "ImageOrientationPatientDICOM": [
      0.999367,
      0.0250678,
      0.0252539,
      0.0224824,
      0.105276,
      -0.994189
    ],
    "ImageType": [
      "ORIGINAL",
      "PRIMARY",
      "M",
      "MB",
      "ND",
      "MOSAIC"
    ],
    "InPlanePhaseEncodingDirectionDICOM": "COL",
    "InstitutionAddress": "Oxfordlaan_55_Maastricht_22AAA2_Limburg_NL_6229_EV",
    "InstitutionName": "Scannexus",
    "InstitutionalDepartmentName": "MRI_7T",
    "MRAcquisitionType": "2D",
    "MagneticFieldStrength": 6.98,
    "Manufacturer": "Siemens",
    "ManufacturersModelName": "Investigational_Device_7T",
    "Modality": "MR",
    "MultibandAccelerationFactor": 2,
    "ParallelReductionFactorInPlane": 3,
    "PartialFourier": 0.75,
    "PatientPosition": "HFS",
    "PercentPhaseFOV": 100,
    "PhaseEncodingDirection": "j",
    "PhaseEncodingSteps": 141,
    "PhaseResolution": 1,
    "PixelBandwidth": 1400,
    "ProcedureStepDescription": "FeDem_Faruk",
    "ProtocolName": "cmrr_mbep2d_bold_AP_run6",
    "PulseSequenceDetails": "%CustomerSeq%_cmrr_mbep2d_bold",
    "ReceiveCoilName": "32Ch_Head_7T",
    "ReconMatrixPE": 188,
    "RepetitionTime": 2.6,
    "SAR": 0.0887862,
    "ScanOptions": "PFP_FS",
    "ScanningSequence": "EP",
    "SequenceName": "epfid2d1_188",
    "SequenceVariant": "SK_SS",
    "SeriesDescription": "cmrr_mbep2d_bold_AP_run6",
    "SeriesNumber": 17,
    "ShimSetting": [
      150,
      -120,
      519,
      382,
      159,
      49,
      -160,
      140
    ],
    "SliceThickness": 1.1,
    "SliceTiming": [
      0,
      0.735,
      0.0625,
      0.795,
      0.1225,
      0.8575,
      0.185,
      0.9175,
      0.245,
      0.98,
      0.3075,
      1.04,
      0.3675,
      1.1,
      0.43,
      1.1625,
      0.49,
      1.2225,
      0.55,
      1.285,
      0.6125,
      1.345,
      0.6725,
      0,
      0.735,
      0.0625,
      0.795,
      0.1225,
      0.8575,
      0.185,
      0.9175,
      0.245,
      0.98,
      0.3075,
      1.04,
      0.3675,
      1.1,
      0.43,
      1.1625,
      0.49,
      1.2225,
      0.55,
      1.285,
      0.6125,
      1.345,
      0.6725
    ],
    "SoftwareVersions": "syngo_MR_B17",
    "SpacingBetweenSlices": 1.1,
    "StationName": "MRC18930",
    "TaskName": "auditory",
    "TotalReadoutTime": 0.0511141,
    "TxRefAmp": 240,
    "dataset": "ds001942",
    "dcmmeta_affine": [
      [
        -1.0950508117675781,
        0.02463494800031185,
        0.03033878467977047,
        101.2935791015625
      ],
      [
        -0.027467874810099602,
        0.11535520106554031,
        -1.0935395956039429,
        35.535362243652344
      ],
      [
        0.027671849355101585,
        1.0893772840499878,
        0.1151098757982254,
        -123.33378601074219
      ],
      [
        0.0,
        0.0,
        0.0,
        1.0
      ]
    ],
    "dcmmeta_reorient_transform": [
      [
        0.0,
        -1.0,
        0.0,
        187.0
      ],
      [
        1.0,
        0.0,
        0.0,
        0.0
      ],
      [
        0.0,
        0.0,
        1.0,
        0.0
      ],
      [
        0.0,
        0.0,
        0.0,
        1.0
      ]
    ],
    "dcmmeta_shape": [
      188,
      188,
      46,
      150
    ],
    "dcmmeta_slice_dim": 2,
    "dcmmeta_version": 0.6,
    "global": {
      "const": {
        "AcquisitionMatrix": [
          188,
          0,
          0,
          188
        ],
        "AngioFlag": "N",
        "BitsAllocated": 16,
        "BitsStored": 12,
        "Columns": 1316,
        "EchoNumbers": 1,
        "EchoTime": 20.0,
        "EchoTrainLength": 1,
        "FlipAngle": 80.0,
        "HighBit": 11,
        "ImageOrientationPatient": [
          0.9993667227694,
          0.02506776778243,
          0.02525391929116,
          0.02248237943943,
          0.10527561308265,
          -0.9941889095664
        ],
        "ImagePositionPatient": [
          -737.40308492712,
          -137.65899729473,
          679.18161313505
        ],
        "ImageType": [
          "ORIGINAL",
          "PRIMARY",
          "M",
          "MB",
          "ND",
          "MOSAIC"
        ],
        "ImagedNucleus": "1H",
        "ImagingFrequency": 297.205646,
        "InPlanePhaseEncodingDirection": "COL",
        "LargestImagePixelValue": 4095,
        "MRAcquisitionType": "2D",
        "MagneticFieldStrength": 6.98,
        "Manufacturer": "SIEMENS",
        "ManufacturerModelName": "Investigational_Device_7T",
        "Modality": "MR",
        "NumberOfAverages": 1.0,
        "NumberOfPhaseEncodingSteps": 141,
        "PercentPhaseFieldOfView": 100.0,
        "PercentSampling": 100.0,
        "PerformedProcedureStepStartTime": "115818.375000",
        "PhotometricInterpretation": "MONOCHROME2",
        "PixelBandwidth": 1400.0,
        "PixelRepresentation": 0,
        "PixelSpacing": [
          1.0957447290421,
          1.0957447290421
        ],
        "ProtocolName": "cmrr_mbep2d_bold_AP_run6",
        "RepetitionTime": 2600.0,
        "Rows": 1316,
        "SAR": 0.08878616649952,
        "SamplesPerPixel": 1,
        "ScanOptions": [
          "PFP",
          "FS"
        ],
        "ScanningSequence": "EP",
        "SequenceName": "epfid2d1_188",
        "SequenceVariant": [
          "SK",
          "SS"
        ],
        "SeriesDescription": "cmrr_mbep2d_bold_AP_run6",
        "SeriesNumber": 17,
        "SeriesTime": "130738.875000",
        "SliceLocation": -45.439224808025,
        "SliceThickness": 1.1000000238419,
        "SmallestImagePixelValue": 0,
        "SoftwareVersions": "syngo MR B17",
        "SpacingBetweenSlices": 1.0999998200792,
        "SpecificCharacterSet": "ISO_IR 100",
        "StudyID": "1",
        "StudyTime": "115818.265000",
        "TransmitCoilName": "32Ch_Head_7T",
        "VariableFlipAngleFlag": "N",
        "WindowCenterWidthExplanation": "Algo1",
        "dBdt": 0.0
      },
      "slices": {}
    },
    "modality": "bold",
    "run_id": 6,
    "session_id": "SES03",
    "subject_id": "S02",
    "task_id": "auditory",
    "time": {
      "samples": {
        "AcquisitionNumber": [
          1,
          2,
          3,
          4,
          5,
          6,
          7,
          8,
          9,
          10,
          11,
          12,
          13,
          14,
          15,
          16,
          17,
          18,
          19,
          20,
          21,
          22,
          23,
          24,
          25,
          26,
          27,
          28,
          29,
          30,
          31,
          32,
          33,
          34,
          35,
          36,
          37,
          38,
          39,
          40,
          41,
          42,
          43,
          44,
          45,
          46,
          47,
          48,
          49,
          50,
          51,
          52,
          53,
          54,
          55,
          56,
          57,
          58,
          59,
          60,
          61,
          62,
          63,
          64,
          65,
          66,
          67,
          68,
          69,
          70,
          71,
          72,
          73,
          74,
          75,
          76,
          77,
          78,
          79,
          80,
          81,
          82,
          83,
          84,
          85,
          86,
          87,
          88,
          89,
          90,
          91,
          92,
          93,
          94,
          95,
          96,
          97,
          98,
          99,
          100,
          101,
          102,
          103,
          104,
          105,
          106,
          107,
          108,
          109,
          110,
          111,
          112,
          113,
          114,
          115,
          116,
          117,
          118,
          119,
          120,
          121,
          122,
          123,
          124,
          125,
          126,
          127,
          128,
          129,
          130,
          131,
          132,
          133,
          134,
          135,
          136,
          137,
          138,
          139,
          140,
          141,
          142,
          143,
          144,
          145,
          146,
          147,
          148,
          149,
          150
        ],
        "AcquisitionTime": [
          "130729.165000",
          "130731.777500",
          "130734.387500",
          "130736.997500",
          "130739.607500",
          "130742.217500",
          "130744.830000",
          "130747.440000",
          "130750.050000",
          "130752.660000",
          "130755.270000",
          "130757.880000",
          "130800.492500",
          "130803.102500",
          "130805.712500",
          "130808.322500",
          "130810.932500",
          "130813.542500",
          "130816.155000",
          "130818.765000",
          "130821.375000",
          "130823.985000",
          "130826.595000",
          "130829.207500",
          "130831.817500",
          "130834.427500",
          "130837.037500",
          "130839.647500",
          "130842.257500",
          "130844.870000",
          "130847.480000",
          "130850.090000",
          "130852.700000",
          "130855.310000",
          "130857.920000",
          "130900.532500",
          "130903.142500",
          "130905.752500",
          "130908.362500",
          "130910.972500",
          "130913.585000",
          "130916.195000",
          "130918.805000",
          "130921.415000",
          "130924.025000",
          "130926.635000",
          "130929.247500",
          "130931.857500",
          "130934.467500",
          "130937.077500",
          "130939.687500",
          "130942.297500",
          "130944.910000",
          "130947.520000",
          "130950.130000",
          "130952.740000",
          "130955.350000",
          "130957.962500",
          "131000.572500",
          "131003.182500",
          "131005.792500",
          "131008.402500",
          "131011.012500",
          "131013.625000",
          "131016.235000",
          "131018.845000",
          "131021.455000",
          "131024.065000",
          "131026.675000",
          "131029.287500",
          "131031.897500",
          "131034.507500",
          "131037.117500",
          "131039.727500",
          "131042.340000",
          "131044.950000",
          "131047.560000",
          "131050.170000",
          "131052.780000",
          "131055.390000",
          "131058.002500",
          "131100.612500",
          "131103.222500",
          "131105.832500",
          "131108.442500",
          "131111.052500",
          "131113.665000",
          "131116.275000",
          "131118.885000",
          "131121.495000",
          "131124.105000",
          "131126.717500",
          "131129.327500",
          "131131.937500",
          "131134.547500",
          "131137.157500",
          "131139.767500",
          "131142.380000",
          "131144.990000",
          "131147.600000",
          "131150.210000",
          "131152.820000",
          "131155.432500",
          "131158.042500",
          "131200.652500",
          "131203.262500",
          "131205.872500",
          "131208.482500",
          "131211.095000",
          "131213.705000",
          "131216.315000",
          "131218.925000",
          "131221.535000",
          "131224.145000",
          "131226.757500",
          "131229.367500",
          "131231.977500",
          "131234.587500",
          "131237.197500",
          "131239.810000",
          "131242.420000",
          "131245.030000",
          "131247.640000",
          "131250.250000",
          "131252.860000",
          "131255.472500",
          "131258.082500",
          "131300.692500",
          "131303.302500",
          "131305.912500",
          "131308.522500",
          "131311.135000",
          "131313.745000",
          "131316.355000",
          "131318.965000",
          "131321.575000",
          "131324.187500",
          "131326.797500",
          "131329.407500",
          "131332.017500",
          "131334.627500",
          "131337.237500",
          "131339.850000",
          "131342.460000",
          "131345.070000",
          "131347.680000",
          "131350.290000",
          "131352.900000",
          "131355.512500",
          "131358.122500"
        ],
        "ContentTime": [
          "130738.890000",
          "130739.375000",
          "130739.875000",
          "130741.875000",
          "130744.375000",
          "130746.875000",
          "130749.875000",
          "130752.375000",
          "130754.875000",
          "130757.375000",
          "130800.375000",
          "130802.875000",
          "130805.375000",
          "130807.875000",
          "130810.375000",
          "130812.875000",
          "130815.875000",
          "130818.375000",
          "130820.875000",
          "130823.375000",
          "130826.375000",
          "130828.875000",
          "130831.375000",
          "130833.875000",
          "130836.375000",
          "130839.375000",
          "130841.875000",
          "130844.375000",
          "130846.875000",
          "130849.375000",
          "130852.375000",
          "130854.875000",
          "130857.375000",
          "130859.875000",
          "130902.375000",
          "130905.375000",
          "130907.875000",
          "130910.375000",
          "130912.875000",
          "130915.375000",
          "130918.375000",
          "130920.875000",
          "130923.375000",
          "130925.875000",
          "130928.375000",
          "130931.375000",
          "130933.875000",
          "130936.375000",
          "130938.875000",
          "130941.375000",
          "130943.875000",
          "130946.875000",
          "130949.375000",
          "130951.875000",
          "130954.375000",
          "130957.375000",
          "130959.875000",
          "131002.375000",
          "131004.875000",
          "131007.375000",
          "131010.375000",
          "131012.875000",
          "131015.375000",
          "131017.875000",
          "131020.375000",
          "131022.875000",
          "131025.875000",
          "131028.375000",
          "131030.875000",
          "131033.375000",
          "131035.875000",
          "131038.875000",
          "131041.375000",
          "131043.875000",
          "131046.375000",
          "131049.375000",
          "131051.875000",
          "131054.375000",
          "131056.875000",
          "131059.375000",
          "131102.375000",
          "131104.875000",
          "131107.375000",
          "131109.875000",
          "131112.375000",
          "131115.375000",
          "131117.875000",
          "131120.375000",
          "131122.875000",
          "131125.375000",
          "131127.875000",
          "131130.875000",
          "131133.375000",
          "131135.875000",
          "131138.375000",
          "131141.375000",
          "131143.875000",
          "131146.375000",
          "131148.875000",
          "131151.375000",
          "131154.375000",
          "131156.875000",
          "131159.375000",
          "131201.875000",
          "131204.375000",
          "131207.375000",
          "131209.875000",
          "131212.375000",
          "131214.875000",
          "131217.375000",
          "131220.375000",
          "131222.875000",
          "131225.375000",
          "131227.875000",
          "131230.375000",
          "131233.375000",
          "131235.875000",
          "131238.375000",
          "131240.875000",
          "131243.375000",
          "131246.375000",
          "131248.875000",
          "131251.375000",
          "131253.875000",
          "131256.375000",
          "131258.875000",
          "131301.875000",
          "131304.375000",
          "131306.875000",
          "131309.375000",
          "131312.375000",
          "131314.875000",
          "131317.375000",
          "131319.875000",
          "131322.375000",
          "131324.875000",
          "131327.875000",
          "131330.375000",
          "131332.875000",
          "131335.375000",
          "131338.375000",
          "131340.875000",
          "131343.375000",
          "131345.875000",
          "131348.375000",
          "131351.375000",
          "131353.875000",
          "131356.375000",
          "131358.875000",
          "131406.250000"
        ],
        "InstanceCreationTime": [
          "130738.890000",
          "130739.375000",
          "130739.875000",
          "130741.875000",
          "130744.375000",
          "130746.875000",
          "130749.875000",
          "130752.375000",
          "130754.875000",
          "130757.375000",
          "130800.375000",
          "130802.875000",
          "130805.375000",
          "130807.875000",
          "130810.375000",
          "130812.875000",
          "130815.875000",
          "130818.375000",
          "130820.875000",
          "130823.375000",
          "130826.375000",
          "130828.875000",
          "130831.375000",
          "130833.875000",
          "130836.375000",
          "130839.375000",
          "130841.875000",
          "130844.375000",
          "130846.875000",
          "130849.375000",
          "130852.375000",
          "130854.875000",
          "130857.375000",
          "130859.875000",
          "130902.375000",
          "130905.375000",
          "130907.875000",
          "130910.375000",
          "130912.875000",
          "130915.375000",
          "130918.375000",
          "130920.875000",
          "130923.375000",
          "130925.875000",
          "130928.375000",
          "130931.375000",
          "130933.875000",
          "130936.375000",
          "130938.875000",
          "130941.375000",
          "130943.875000",
          "130946.875000",
          "130949.375000",
          "130951.875000",
          "130954.375000",
          "130957.375000",
          "130959.875000",
          "131002.375000",
          "131004.875000",
          "131007.375000",
          "131010.375000",
          "131012.875000",
          "131015.375000",
          "131017.875000",
          "131020.375000",
          "131022.875000",
          "131025.875000",
          "131028.375000",
          "131030.875000",
          "131033.375000",
          "131035.875000",
          "131038.875000",
          "131041.375000",
          "131043.875000",
          "131046.375000",
          "131049.375000",
          "131051.875000",
          "131054.375000",
          "131056.875000",
          "131059.375000",
          "131102.375000",
          "131104.875000",
          "131107.375000",
          "131109.875000",
          "131112.375000",
          "131115.375000",
          "131117.875000",
          "131120.375000",
          "131122.875000",
          "131125.375000",
          "131127.875000",
          "131130.875000",
          "131133.375000",
          "131135.875000",
          "131138.375000",
          "131141.375000",
          "131143.875000",
          "131146.375000",
          "131148.875000",
          "131151.375000",
          "131154.375000",
          "131156.875000",
          "131159.375000",
          "131201.875000",
          "131204.375000",
          "131207.375000",
          "131209.875000",
          "131212.375000",
          "131214.875000",
          "131217.375000",
          "131220.375000",
          "131222.875000",
          "131225.375000",
          "131227.875000",
          "131230.375000",
          "131233.375000",
          "131235.875000",
          "131238.375000",
          "131240.875000",
          "131243.375000",
          "131246.375000",
          "131248.875000",
          "131251.375000",
          "131253.875000",
          "131256.375000",
          "131258.875000",
          "131301.875000",
          "131304.375000",
          "131306.875000",
          "131309.375000",
          "131312.375000",
          "131314.875000",
          "131317.375000",
          "131319.875000",
          "131322.375000",
          "131324.875000",
          "131327.875000",
          "131330.375000",
          "131332.875000",
          "131335.375000",
          "131338.375000",
          "131340.875000",
          "131343.375000",
          "131345.875000",
          "131348.375000",
          "131351.375000",
          "131353.875000",
          "131356.375000",
          "131358.875000",
          "131406.250000"
        ],
        "InstanceNumber": [
          1,
          2,
          3,
          4,
          5,
          6,
          7,
          8,
          9,
          10,
          11,
          12,
          13,
          14,
          15,
          16,
          17,
          18,
          19,
          20,
          21,
          22,
          23,
          24,
          25,
          26,
          27,
          28,
          29,
          30,
          31,
          32,
          33,
          34,
          35,
          36,
          37,
          38,
          39,
          40,
          41,
          42,
          43,
          44,
          45,
          46,
          47,
          48,
          49,
          50,
          51,
          52,
          53,
          54,
          55,
          56,
          57,
          58,
          59,
          60,
          61,
          62,
          63,
          64,
          65,
          66,
          67,
          68,
          69,
          70,
          71,
          72,
          73,
          74,
          75,
          76,
          77,
          78,
          79,
          80,
          81,
          82,
          83,
          84,
          85,
          86,
          87,
          88,
          89,
          90,
          91,
          92,
          93,
          94,
          95,
          96,
          97,
          98,
          99,
          100,
          101,
          102,
          103,
          104,
          105,
          106,
          107,
          108,
          109,
          110,
          111,
          112,
          113,
          114,
          115,
          116,
          117,
          118,
          119,
          120,
          121,
          122,
          123,
          124,
          125,
          126,
          127,
          128,
          129,
          130,
          131,
          132,
          133,
          134,
          135,
          136,
          137,
          138,
          139,
          140,
          141,
          142,
          143,
          144,
          145,
          146,
          147,
          148,
          149,
          150
        ],
        "WindowCenter": [
          949.0,
          946.0,
          947.0,
          947.0,
          947.0,
          946.0,
          948.0,
          948.0,
          947.0,
          947.0,
          945.0,
          946.0,
          948.0,
          947.0,
          946.0,
          948.0,
          947.0,
          947.0,
          947.0,
          947.0,
          947.0,
          947.0,
          947.0,
          947.0,
          949.0,
          949.0,
          947.0,
          949.0,
          946.0,
          944.0,
          946.0,
          947.0,
          946.0,
          945.0,
          946.0,
          947.0,
          946.0,
          947.0,
          948.0,
          947.0,
          946.0,
          946.0,
          947.0,
          947.0,
          945.0,
          946.0,
          947.0,
          946.0,
          947.0,
          947.0,
          947.0,
          946.0,
          947.0,
          947.0,
          946.0,
          946.0,
          948.0,
          948.0,
          948.0,
          949.0,
          947.0,
          945.0,
          946.0,
          948.0,
          946.0,
          946.0,
          948.0,
          947.0,
          947.0,
          948.0,
          947.0,
          947.0,
          947.0,
          948.0,
          949.0,
          947.0,
          947.0,
          949.0,
          949.0,
          947.0,
          947.0,
          948.0,
          949.0,
          947.0,
          945.0,
          947.0,
          948.0,
          947.0,
          947.0,
          948.0,
          947.0,
          945.0,
          948.0,
          947.0,
          946.0,
          946.0,
          948.0,
          948.0,
          947.0,
          948.0,
          948.0,
          948.0,
          948.0,
          948.0,
          949.0,
          946.0,
          947.0,
          949.0,
          946.0,
          945.0,
          948.0,
          949.0,
          947.0,
          947.0,
          947.0,
          947.0,
          946.0,
          947.0,
          948.0,
          947.0,
          948.0,
          948.0,
          948.0,
          948.0,
          947.0,
          947.0,
          947.0,
          948.0,
          949.0,
          947.0,
          948.0,
          948.0,
          949.0,
          948.0,
          947.0,
          946.0,
          948.0,
          948.0,
          947.0,
          946.0,
          948.0,
          948.0,
          947.0,
          947.0,
          949.0,
          949.0,
          946.0,
          945.0,
          949.0,
          948.0
        ],
        "WindowWidth": [
          2195.0,
          2187.0,
          2188.0,
          2192.0,
          2190.0,
          2187.0,
          2193.0,
          2195.0,
          2191.0,
          2189.0,
          2186.0,
          2187.0,
          2194.0,
          2190.0,
          2187.0,
          2192.0,
          2189.0,
          2189.0,
          2190.0,
          2189.0,
          2191.0,
          2190.0,
          2190.0,
          2191.0,
          2198.0,
          2195.0,
          2191.0,
          2195.0,
          2187.0,
          2181.0,
          2186.0,
          2189.0,
          2188.0,
          2184.0,
          2188.0,
          2191.0,
          2187.0,
          2189.0,
          2192.0,
          2188.0,
          2188.0,
          2187.0,
          2190.0,
          2187.0,
          2184.0,
          2187.0,
          2191.0,
          2188.0,
          2189.0,
          2190.0,
          2188.0,
          2187.0,
          2190.0,
          2190.0,
          2188.0,
          2188.0,
          2191.0,
          2191.0,
          2193.0,
          2198.0,
          2189.0,
          2182.0,
          2188.0,
          2192.0,
          2187.0,
          2188.0,
          2191.0,
          2189.0,
          2189.0,
          2191.0,
          2191.0,
          2191.0,
          2189.0,
          2193.0,
          2196.0,
          2192.0,
          2192.0,
          2197.0,
          2196.0,
          2190.0,
          2191.0,
          2196.0,
          2196.0,
          2189.0,
          2185.0,
          2192.0,
          2190.0,
          2188.0,
          2191.0,
          2194.0,
          2188.0,
          2183.0,
          2193.0,
          2189.0,
          2188.0,
          2187.0,
          2192.0,
          2191.0,
          2192.0,
          2193.0,
          2192.0,
          2194.0,
          2192.0,
          2194.0,
          2196.0,
          2186.0,
          2192.0,
          2197.0,
          2187.0,
          2184.0,
          2192.0,
          2194.0,
          2188.0,
          2190.0,
          2190.0,
          2190.0,
          2186.0,
          2189.0,
          2191.0,
          2190.0,
          2194.0,
          2194.0,
          2194.0,
          2192.0,
          2191.0,
          2190.0,
          2191.0,
          2194.0,
          2196.0,
          2190.0,
          2193.0,
          2194.0,
          2196.0,
          2193.0,
          2190.0,
          2189.0,
          2192.0,
          2193.0,
          2189.0,
          2188.0,
          2193.0,
          2193.0,
          2189.0,
          2188.0,
          2196.0,
          2196.0,
          2189.0,
          2185.0,
          2197.0,
          2190.0
        ]
      },
      "slices": {}
    }
  },
  "dummy_trs": 0,
  "dvars_nstd": 76.12303371577181,
  "dvars_std": 1.0361366714093956,
  "dvars_vstd": 1.0064659187248322,
  "efc": 0.5880736882605994,
  "fber": 205.2973175048828,
  "fd_mean": 0.06616585478854309,
  "fd_num": 2,
  "fd_perc": 1.3333333333333333,
  "fwhm_avg": 3.1425509431215914,
  "fwhm_x": 3.0112396733905418,
  "fwhm_y": 2.9995124894402854,
  "fwhm_z": 3.4169006665339468,
  "gcor": 0.00115814,
  "gsr_x": 0.05060429871082306,
  "gsr_y": 0.012106952257454395,
  "provenance": {
    "md5sum": "8ac521acea4c739daaf8f9819a8fc4d6",
    "settings": {
      "fd_thres": 0.2,
      "testing": false
    },
    "software": "mriqc",
    "version": "23.0.1",
    "webapi_port": null,
    "webapi_url": "https://mriqc.nimh.nih.gov/api/v1"
  },
  "size_t": 150,
  "size_x": 188,
  "size_y": 188,
  "size_z": 46,
  "snr": 1.9436320476241322,
  "spacing_tr": 2.5999999046325684,
  "spacing_x": 1.0957447290420532,
  "spacing_y": 1.0957447290420532,
  "spacing_z": 1.0999997854232788,
  "summary_bg_k": 42.18891965596909,
  "summary_bg_mad": 41.23611279580679,
  "summary_bg_mean": 122.1445083618164,
  "summary_bg_median": 68.66000366210938,
  "summary_bg_n": 1017248.0,
  "summary_bg_p05": 34.246665954589844,
  "summary_bg_p95": 355.35333251953125,
