{
  "aor": 0.0007840000000000001,
  "aqi": 0.011981608666666666,
  "bids_meta": {
    "AcquisitionMatrixPE": 188,
    "AcquisitionNumber": 1,
    "AcquisitionTime": "12:52:18.290000",
    "BandwidthPerPixelPhaseEncode": 19.46,
    "BaseResolution": 188,
    "ConversionSoftware": "dcm2niix",
    "ConversionSoftwareVersion": "v1.0.20180606 GCC4.8.5",
    "DelayTime": 1.2,
    "DerivedVendorReportedEchoSpacing": 0.000820013,
    "DeviceSerialNumber": "18930",
    "DwellTime": 1.9e-06,
    "EchoTime": 0.02,
    "EffectiveEchoSpacing": 0.000273338,
    "FlipAngle": 80,
    "ImageComments": "Unaliased_MB2_PE2",
    "ImageOrientationPatientDICOM": [
      0.999367,
      0.0250678,
      0.0252539,
      0.0224824,
      0.105276,
      -0.994189
    ],
    "ImageType": [
      "ORIGINAL",
      "PRIMARY",
      "M",
      "MB",
      "ND",
      "MOSAIC"
    ],
    "InPlanePhaseEncodingDirectionDICOM": "COL",
    "InstitutionAddress": "Oxfordlaan_55_Maastricht_22AAA2_Limburg_NL_6229_EV",
    "InstitutionName": "Scannexus",
    "InstitutionalDepartmentName": "MRI_7T",
    "MRAcquisitionType": "2D",
    "MagneticFieldStrength": 6.98,
    "Manufacturer": "Siemens",
    "ManufacturersModelName": "Investigational_Device_7T",
    "Modality": "MR",
    "MultibandAccelerationFactor": 2,
    "ParallelReductionFactorInPlane": 3,
    "PartialFourier": 0.75,
    "PatientPosition": "HFS",
    "PercentPhaseFOV": 100,
    "PhaseEncodingDirection": "j",
    "PhaseEncodingSteps": 141,
    "PhaseResolution": 1,
    "PixelBandwidth": 1400,
    "ProcedureStepDescription": "FeDem_Faruk",
    "ProtocolName": "cmrr_mbep2d_bold_AP_run4",
    "PulseSequenceDetails": "%CustomerSeq%_cmrr_mbep2d_bold",
    "ReceiveCoilName": "32Ch_Head_7T",
    "ReconMatrixPE": 188,
    "RepetitionTime": 2.6,
    "SAR": 0.0885991,
    "ScanOptions": "PFP_FS",
    "ScanningSequence": "EP",
    "SequenceName": "epfid2d1_188",
    "SequenceVariant": "SK_SS",
    "SeriesDescription": "cmrr_mbep2d_bold_AP_run4",
    "SeriesNumber": 15,
    "ShimSetting": [
      150,
      -120,
      519,
      382,
      159,
      49,
      -160,
      140
    ],
    "SliceThickness": 1.1,
    "SliceTiming": [
      0,
      0.735,
      0.0625,
      0.795,
      0.1225,
      0.855,
      0.185,
      0.9175,
      0.245,
      0.9775,
      0.305,
      1.04,
      0.3675,
      1.1,
      0.4275,
      1.1625,
      0.49,
      1.2225,
      0.55,
      1.2825,
      0.6125,
      1.345,
      0.6725,
      0,
      0.735,
      0.0625,
      0.795,
      0.1225,
      0.855,
      0.185,
      0.9175,
      0.245,
      0.9775,
      0.305,
      1.04,
      0.3675,
      1.1,
      0.4275,
      1.1625,
      0.49,
      1.2225,
      0.55,
      1.2825,
      0.6125,
      1.345,
      0.6725
    ],
    "SoftwareVersions": "syngo_MR_B17",
    "SpacingBetweenSlices": 1.1,
    "StationName": "MRC18930",
    "TaskName": "auditory",
    "TotalReadoutTime": 0.0511141,
    "TxRefAmp": 240,
    "dataset": "ds001942",
    "dcmmeta_affine": [
      [
        -1.0950508117675781,
        0.02463494800031185,
        0.03033878467977047,
        101.2935791015625
      ],
      [
        -0.027467874810099602,
        0.11535520106554031,
        -1.0935395956039429,
        35.535362243652344
      ],
      [
        0.027671849355101585,
        1.0893772840499878,
        0.1151098757982254,
        -123.33378601074219
      ],
      [
        0.0,
        0.0,
        0.0,
        1.0
      ]
    ],
    "dcmmeta_reorient_transform": [
      [
        0.0,
        -1.0,
        0.0,
        187.0
      ],
      [
        1.0,
        0.0,
        0.0,
        0.0
      ],
      [
        0.0,
        0.0,
        1.0,
        0.0
      ],
      [
        0.0,
        0.0,
        0.0,
        1.0
      ]
    ],
    "dcmmeta_shape": [
      188,
      188,
      46,
      150
    ],
    "dcmmeta_slice_dim": 2,
    "dcmmeta_version": 0.6,
    "global": {
      "const": {
        "AcquisitionMatrix": [
          188,
          0,
          0,
          188
        ],
        "AngioFlag": "N",
        "BitsAllocated": 16,
        "BitsStored": 12,
        "Columns": 1316,
        "EchoNumbers": 1,
        "EchoTime": 20.0,
        "EchoTrainLength": 1,
        "FlipAngle": 80.0,
        "HighBit": 11,
        "ImageOrientationPatient": [
          0.9993667227694,
          0.02506776778243,
          0.02525391929116,
          0.02248237943943,
          0.10527561308265,
          -0.9941889095664
        ],
        "ImagePositionPatient": [
          -737.40308492712,
          -137.65899729473,
          679.18161313505
        ],
        "ImageType": [
          "ORIGINAL",
          "PRIMARY",
          "M",
          "MB",
          "ND",
          "MOSAIC"
        ],
        "ImagedNucleus": "1H",
        "ImagingFrequency": 297.205643,
        "InPlanePhaseEncodingDirection": "COL",
        "LargestImagePixelValue": 4095,
        "MRAcquisitionType": "2D",
        "MagneticFieldStrength": 6.98,
        "Manufacturer": "SIEMENS",
        "ManufacturerModelName": "Investigational_Device_7T",
        "Modality": "MR",
        "NumberOfAverages": 1.0,
        "NumberOfPhaseEncodingSteps": 141,
        "PercentPhaseFieldOfView": 100.0,
        "PercentSampling": 100.0,
        "PerformedProcedureStepStartTime": "115818.375000",
        "PhotometricInterpretation": "MONOCHROME2",
        "PixelBandwidth": 1400.0,
        "PixelRepresentation": 0,
        "PixelSpacing": [
          1.0957447290421,
          1.0957447290421
        ],
        "ProtocolName": "cmrr_mbep2d_bold_AP_run4",
        "RepetitionTime": 2600.0,
        "Rows": 1316,
        "SAR": 0.08859907774005,
        "SamplesPerPixel": 1,
        "ScanOptions": [
          "PFP",
          "FS"
        ],
        "ScanningSequence": "EP",
        "SequenceName": "epfid2d1_188",
        "SequenceVariant": [
          "SK",
          "SS"
        ],
        "SeriesDescription": "cmrr_mbep2d_bold_AP_run4",
        "SeriesNumber": 15,
        "SeriesTime": "125227.421000",
        "SliceLocation": -45.439224808025,
        "SliceThickness": 1.1000000238419,
        "SmallestImagePixelValue": 0,
        "SoftwareVersions": "syngo MR B17",
        "SpacingBetweenSlices": 1.0999998200792,
        "SpecificCharacterSet": "ISO_IR 100",
        "StudyID": "1",
        "StudyTime": "115818.265000",
        "TransmitCoilName": "32Ch_Head_7T",
        "VariableFlipAngleFlag": "N",
        "WindowCenterWidthExplanation": "Algo1",
        "dBdt": 0.0
      },
      "slices": {}
    },
    "modality": "bold",
    "run_id": 4,
    "session_id": "SES03",
    "subject_id": "S02",
    "task_id": "auditory",
    "time": {
      "samples": {
        "AcquisitionNumber": [
          1,
          2,
          3,
          4,
          5,
          6,
          7,
          8,
          9,
          10,
          11,
          12,
          13,
          14,
          15,
          16,
          17,
          18,
          19,
          20,
          21,
          22,
          23,
          24,
          25,
          26,
          27,
          28,
          29,
          30,
          31,
          32,
          33,
          34,
          35,
          36,
          37,
          38,
          39,
          40,
          41,
          42,
          43,
          44,
          45,
          46,
          47,
          48,
          49,
          50,
          51,
          52,
          53,
          54,
          55,
          56,
          57,
          58,
          59,
          60,
          61,
          62,
          63,
          64,
          65,
          66,
          67,
          68,
          69,
          70,
          71,
          72,
          73,
          74,
          75,
          76,
          77,
          78,
          79,
          80,
          81,
          82,
          83,
          84,
          85,
          86,
          87,
          88,
          89,
          90,
          91,
          92,
          93,
          94,
          95,
          96,
          97,
          98,
          99,
          100,
          101,
          102,
          103,
          104,
          105,
          106,
          107,
          108,
          109,
          110,
          111,
          112,
          113,
          114,
          115,
          116,
          117,
          118,
          119,
          120,
          121,
          122,
          123,
          124,
          125,
          126,
          127,
          128,
          129,
          130,
          131,
          132,
          133,
          134,
          135,
          136,
          137,
          138,
          139,
          140,
          141,
          142,
          143,
          144,
          145,
          146,
          147,
          148,
          149,
          150
        ],
        "AcquisitionTime": [
          "125218.290000",
          "125220.900000",
          "125223.512500",
          "125226.122500",
          "125228.732500",
          "125231.342500",
          "125233.952500",
          "125236.562500",
          "125239.175000",
          "125241.785000",
          "125244.395000",
          "125247.005000",
          "125249.615000",
          "125252.227500",
          "125254.837500",
          "125257.447500",
          "125300.057500",
          "125302.667500",
          "125305.277500",
          "125307.890000",
          "125310.500000",
          "125313.110000",
          "125315.720000",
          "125318.330000",
          "125320.940000",
          "125323.552500",
          "125326.162500",
          "125328.772500",
          "125331.382500",
          "125333.992500",
          "125336.605000",
          "125339.215000",
          "125341.825000",
          "125344.435000",
          "125347.045000",
          "125349.655000",
          "125352.267500",
          "125354.877500",
          "125357.487500",
          "125400.097500",
          "125402.707500",
          "125405.317500",
          "125407.930000",
          "125410.540000",
          "125413.150000",
          "125415.760000",
          "125418.370000",
          "125420.982500",
          "125423.592500",
          "125426.202500",
          "125428.812500",
          "125431.422500",
          "125434.032500",
          "125436.645000",
          "125439.255000",
          "125441.865000",
          "125444.475000",
          "125447.085000",
          "125449.695000",
          "125452.307500",
          "125454.917500",
          "125457.527500",
          "125500.137500",
          "125502.747500",
          "125505.360000",
          "125507.970000",
          "125510.580000",
          "125513.190000",
          "125515.800000",
          "125518.410000",
          "125521.022500",
          "125523.632500",
          "125526.242500",
          "125528.852500",
          "125531.462500",
          "125534.072500",
          "125536.685000",
          "125539.295000",
          "125541.905000",
          "125544.515000",
          "125547.125000",
          "125549.737500",
          "125552.347500",
          "125554.957500",
          "125557.567500",
          "125600.177500",
          "125602.787500",
          "125605.400000",
          "125608.010000",
          "125610.620000",
          "125613.230000",
          "125615.840000",
          "125618.450000",
          "125621.062500",
          "125623.672500",
          "125626.282500",
          "125628.892500",
          "125631.502500",
          "125634.115000",
          "125636.725000",
          "125639.335000",
          "125641.945000",
          "125644.555000",
          "125647.165000",
          "125649.777500",
          "125652.387500",
          "125654.997500",
          "125657.607500",
          "125700.217500",
          "125702.827500",
          "125705.440000",
          "125708.050000",
          "125710.660000",
          "125713.270000",
          "125715.880000",
          "125718.492500",
          "125721.102500",
          "125723.712500",
          "125726.322500",
          "125728.932500",
          "125731.542500",
          "125734.155000",
          "125736.765000",
          "125739.375000",
          "125741.985000",
          "125744.595000",
          "125747.205000",
          "125749.817500",
          "125752.427500",
          "125755.037500",
          "125757.647500",
          "125800.257500",
          "125802.870000",
          "125805.480000",
          "125808.090000",
          "125810.700000",
          "125813.310000",
          "125815.920000",
          "125818.532500",
          "125821.142500",
          "125823.752500",
          "125826.362500",
          "125828.972500",
          "125831.582500",
          "125834.195000",
          "125836.805000",
          "125839.415000",
          "125842.025000",
          "125844.635000",
          "125847.247500"
        ],
        "ContentTime": [
          "125227.421000",
          "125227.421000",
          "125227.921000",
          "125230.421000",
          "125232.921000",
          "125235.421000",
          "125238.421000",
          "125240.921000",
          "125243.421000",
          "125245.921000",
          "125248.421000",
          "125251.421000",
          "125253.921000",
          "125256.421000",
          "125258.921000",
          "125301.421000",
          "125304.421000",
          "125306.921000",
          "125309.421000",
          "125311.921000",
          "125314.421000",
          "125317.421000",
          "125319.921000",
          "125322.421000",
          "125324.921000",
          "125327.921000",
          "125330.421000",
          "125332.921000",
          "125335.421000",
          "125337.921000",
          "125340.421000",
          "125343.421000",
          "125345.921000",
          "125348.421000",
          "125350.921000",
          "125353.921000",
          "125356.421000",
          "125358.921000",
          "125401.421000",
          "125403.921000",
          "125406.421000",
          "125409.421000",
          "125411.921000",
          "125414.421000",
          "125416.921000",
          "125419.421000",
          "125422.421000",
          "125424.921000",
          "125427.421000",
          "125429.921000",
          "125432.421000",
          "125435.421000",
          "125437.921000",
          "125440.421000",
          "125442.921000",
          "125445.421000",
          "125448.421000",
          "125450.921000",
          "125453.421000",
          "125455.921000",
          "125458.421000",
          "125501.421000",
          "125503.921000",
          "125506.421000",
          "125508.921000",
          "125511.421000",
          "125514.421000",
          "125516.921000",
          "125519.421000",
          "125521.921000",
          "125524.421000",
          "125527.421000",
          "125529.921000",
          "125532.421000",
          "125534.921000",
          "125537.421000",
          "125540.421000",
          "125542.921000",
          "125545.421000",
          "125547.921000",
          "125550.421000",
          "125553.421000",
          "125555.921000",
          "125558.421000",
          "125600.921000",
          "125603.421000",
          "125606.421000",
          "125608.921000",
          "125611.421000",
          "125613.921000",
          "125616.921000",
          "125619.421000",
          "125621.921000",
          "125624.421000",
          "125626.921000",
          "125629.421000",
          "125632.421000",
          "125634.921000",
          "125637.421000",
          "125639.921000",
          "125642.421000",
          "125645.421000",
          "125647.921000",
          "125650.421000",
          "125652.921000",
          "125655.421000",
          "125658.421000",
          "125700.921000",
          "125703.421000",
          "125705.921000",
          "125708.421000",
          "125711.421000",
          "125713.921000",
          "125716.421000",
          "125718.921000",
          "125721.421000",
          "125724.421000",
          "125726.921000",
          "125729.421000",
          "125731.921000",
          "125734.421000",
          "125737.421000",
          "125739.921000",
          "125742.421000",
          "125744.921000",
          "125747.421000",
          "125750.421000",
          "125752.921000",
          "125755.421000",
          "125757.921000",
          "125800.421000",
          "125803.421000",
          "125805.921000",
          "125808.421000",
          "125810.921000",
          "125813.421000",
          "125816.421000",
          "125818.921000",
          "125821.421000",
          "125823.921000",
          "125826.921000",
          "125829.421000",
          "125831.921000",
          "125834.421000",
          "125836.921000",
          "125839.421000",
          "125842.421000",
          "125844.921000",
          "125847.421000",
          "125854.765000"
        ],
        "InstanceCreationTime": [
          "125227.421000",
          "125227.421000",
          "125227.921000",
          "125230.421000",
          "125232.921000",
          "125235.421000",
          "125238.421000",
          "125240.921000",
          "125243.421000",
          "125245.921000",
          "125248.421000",
          "125251.421000",
          "125253.921000",
          "125256.421000",
          "125258.921000",
          "125301.421000",
          "125304.421000",
          "125306.921000",
          "125309.421000",
          "125311.921000",
          "125314.421000",
          "125317.421000",
          "125319.921000",
          "125322.421000",
          "125324.921000",
          "125327.921000",
          "125330.421000",
          "125332.921000",
          "125335.421000",
          "125337.921000",
          "125340.421000",
          "125343.421000",
          "125345.921000",
          "125348.421000",
          "125350.921000",
          "125353.921000",
          "125356.421000",
          "125358.921000",
          "125401.421000",
          "125403.921000",
          "125406.421000",
          "125409.421000",
          "125411.921000",
          "125414.421000",
          "125416.921000",
          "125419.421000",
          "125422.421000",
          "125424.921000",
          "125427.421000",
          "125429.921000",
          "125432.421000",
          "125435.421000",
          "125437.921000",
          "125440.421000",
          "125442.921000",
          "125445.421000",
          "125448.421000",
          "125450.921000",
          "125453.421000",
          "125455.921000",
          "125458.421000",
          "125501.421000",
          "125503.921000",
          "125506.421000",
          "125508.921000",
          "125511.421000",
          "125514.421000",
          "125516.921000",
          "125519.421000",
          "125521.921000",
          "125524.421000",
          "125527.421000",
          "125529.921000",
          "125532.421000",
          "125534.921000",
          "125537.421000",
          "125540.421000",
          "125542.921000",
          "125545.421000",
          "125547.921000",
          "125550.421000",
          "125553.421000",
          "125555.921000",
          "125558.421000",
          "125600.921000",
          "125603.421000",
          "125606.421000",
          "125608.921000",
          "125611.421000",
          "125613.921000",
          "125616.921000",
          "125619.421000",
          "125621.921000",
          "125624.421000",
          "125626.921000",
          "125629.421000",
          "125632.421000",
          "125634.921000",
          "125637.421000",
          "125639.921000",
          "125642.421000",
          "125645.421000",
          "125647.921000",
          "125650.421000",
          "125652.921000",
          "125655.421000",
          "125658.421000",
          "125700.921000",
          "125703.421000",
          "125705.921000",
          "125708.421000",
          "125711.421000",
          "125713.921000",
          "125716.421000",
          "125718.921000",
          "125721.421000",
          "125724.421000",
          "125726.921000",
          "125729.421000",
          "125731.921000",
          "125734.421000",
          "125737.421000",
          "125739.921000",
          "125742.421000",
          "125744.921000",
          "125747.421000",
          "125750.421000",
          "125752.921000",
          "125755.421000",
          "125757.921000",
          "125800.421000",
          "125803.421000",
          "125805.921000",
          "125808.421000",
          "125810.921000",
          "125813.421000",
          "125816.421000",
          "125818.921000",
          "125821.421000",
          "125823.921000",
          "125826.921000",
          "125829.421000",
          "125831.921000",
          "125834.421000",
          "125836.921000",
          "125839.421000",
          "125842.421000",
          "125844.921000",
          "125847.421000",
          "125854.765000"
        ],
        "InstanceNumber": [
          1,
          2,
          3,
          4,
          5,
          6,
          7,
          8,
          9,
          10,
          11,
          12,
          13,
          14,
          15,
          16,
          17,
          18,
          19,
          20,
          21,
          22,
          23,
          24,
          25,
          26,
          27,
          28,
          29,
          30,
          31,
          32,
          33,
          34,
          35,
          36,
          37,
          38,
          39,
          40,
          41,
          42,
          43,
          44,
          45,
          46,
          47,
          48,
          49,
          50,
          51,
          52,
          53,
          54,
          55,
          56,
          57,
          58,
          59,
          60,
          61,
          62,
          63,
          64,
          65,
          66,
          67,
          68,
          69,
          70,
          71,
          72,
          73,
          74,
          75,
          76,
          77,
          78,
          79,
          80,
          81,
          82,
          83,
          84,
          85,
          86,
          87,
          88,
          89,
          90,
          91,
          92,
          93,
          94,
          95,
          96,
          97,
          98,
          99,
          100,
          101,
          102,
          103,
          104,
          105,
          106,
          107,
          108,
          109,
          110,
          111,
          112,
          113,
          114,
          115,
          116,
          117,
          118,
          119,
          120,
          121,
          122,
          123,
          124,
          125,
          126,
          127,
          128,
          129,
          130,
          131,
          132,
          133,
          134,
          135,
          136,
          137,
          138,
          139,
          140,
          141,
          142,
          143,
          144,
          145,
          146,
          147,
          148,
          149,
          150
        ],
        "WindowCenter": [
          952.0,
          948.0,
          945.0,
          945.0,
          947.0,
          947.0,
          947.0,
          947.0,
          947.0,
          947.0,
          948.0,
          950.0,
          948.0,
          948.0,
          950.0,
          950.0,
          949.0,
          950.0,
          954.0,
          953.0,
          948.0,
          947.0,
          948.0,
          949.0,
          947.0,
          947.0,
          948.0,
          948.0,
          947.0,
          948.0,
          948.0,
          946.0,
          946.0,
          947.0,
          948.0,
          949.0,
          948.0,
          948.0,
          948.0,
          949.0,
          948.0,
          947.0,
          949.0,
          949.0,
          950.0,
          949.0,
          948.0,
          950.0,
          950.0,
          949.0,
          949.0,
          950.0,
          950.0,
          951.0,
          950.0,
          949.0,
          948.0,
          949.0,
          950.0,
          950.0,
          948.0,
          949.0,
          948.0,
          947.0,
          949.0,
          949.0,
          948.0,
          947.0,
          948.0,
          948.0,
          947.0,
          947.0,
          947.0,
          946.0,
          946.0,
          949.0,
          948.0,
          947.0,
          948.0,
          950.0,
          948.0,
          947.0,
          947.0,
          949.0,
          948.0,
          947.0,
          949.0,
          948.0,
          947.0,
          948.0,
          949.0,
          947.0,
          946.0,
          947.0,
          948.0,
          948.0,
          947.0,
          949.0,
          948.0,
          946.0,
          948.0,
          949.0,
          948.0,
          947.0,
          949.0,
          949.0,
          947.0,
          947.0,
          949.0,
          949.0,
          947.0,
          948.0,
          948.0,
          948.0,
          948.0,
          948.0,
          947.0,
          948.0,
          948.0,
          948.0,
          948.0,
          947.0,
          948.0,
          948.0,
          948.0,
          947.0,
          948.0,
          949.0,
          948.0,
          950.0,
          949.0,
          948.0,
          949.0,
          951.0,
          949.0,
          948.0,
          949.0,
          947.0,
          948.0,
          949.0,
          948.0,
          947.0,
          949.0,
          947.0,
          946.0,
          946.0,
          948.0,
          947.0,
          946.0,
          946.0
        ],
        "WindowWidth": [
          2207.0,
          2191.0,
          2182.0,
          2184.0,
          2191.0,
          2188.0,
          2190.0,
          2189.0,
          2189.0,
          2192.0,
          2194.0,
          2200.0,
          2193.0,
          2193.0,
          2202.0,
          2199.0,
          2199.0,
          2201.0,
          2214.0,
          2209.0,
          2194.0,
          2189.0,
          2194.0,
          2195.0,
          2190.0,
          2191.0,
          2194.0,
          2191.0,
          2190.0,
          2191.0,
          2192.0,
          2188.0,
          2187.0,
          2190.0,
          2194.0,
          2195.0,
          2193.0,
          2194.0,
          2193.0,
          2195.0,
          2192.0,
          2191.0,
          2196.0,
          2196.0,
          2199.0,
          2195.0,
          2194.0,
          2200.0,
          2200.0,
          2197.0,
          2196.0,
          2199.0,
          2199.0,
          2202.0,
          2201.0,
          2196.0,
          2194.0,
          2198.0,
          2200.0,
          2199.0,
          2192.0,
          2196.0,
          2194.0,
          2192.0,
          2197.0,
          2197.0,
          2192.0,
          2190.0,
          2192.0,
          2193.0,
          2189.0,
          2192.0,
          2190.0,
          2187.0,
          2187.0,
          2195.0,
          2191.0,
          2190.0,
          2194.0,
          2200.0,
          2192.0,
          2188.0,
          2189.0,
          2197.0,
          2193.0,
          2191.0,
          2196.0,
          2192.0,
          2189.0,
          2194.0,
          2196.0,
          2189.0,
          2188.0,
          2191.0,
          2195.0,
          2192.0,
          2189.0,
          2196.0,
          2193.0,
          2188.0,
          2193.0,
          2199.0,
          2193.0,
          2192.0,
          2197.0,
          2199.0,
          2190.0,
          2192.0,
          2198.0,
          2194.0,
          2188.0,
          2196.0,
          2194.0,
          2192.0,
          2193.0,
          2193.0,
          2191.0,
          2193.0,
          2192.0,
          2193.0,
          2194.0,
          2192.0,
          2193.0,
          2195.0,
          2193.0,
          2190.0,
          2191.0,
          2196.0,
          2196.0,
          2198.0,
          2196.0,
          2192.0,
          2197.0,
          2204.0,
          2195.0,
          2192.0,
          2196.0,
          2190.0,
          2193.0,
          2196.0,
          2193.0,
          2191.0,
          2196.0,
          2190.0,
          2188.0,
          2186.0,
          2193.0,
          2189.0,
          2186.0,
          2187.0
        ]
      },
      "slices": {}
    }
  },
  "dummy_trs": 0,
  "dvars_nstd": 76.5834060775839,
  "dvars_std": 1.0634008276510067,
  "dvars_vstd": 1.0235844598657722,
  "efc": 0.5873293600596194,
  "fber": 208.65306091308594,
  "fd_mean": 0.05834090313493641,
  "fd_num": 1,
  "fd_perc": 0.6666666666666666,
  "fwhm_avg": 3.0863648134632498,
  "fwhm_x": 2.9617482192565023,
  "fwhm_y": 2.9657637530604815,
  "fwhm_z": 3.331582468072766,
  "gcor": 0.00246167,
  "gsr_x": 0.05266123265028,
  "gsr_y": 0.010143646970391273,
  "provenance": {
    "md5sum": "b4e70972265fe0431821243d5fa9d3ff",
    "settings": {
      "fd_thres": 0.2,
      "testing": false
    },
    "software": "mriqc",
    "version": "23.0.1",
    "webapi_port": null,
    "webapi_url": "https://mriqc.nimh.nih.gov/api/v1"
  },
  "size_t": 150,
  "size_x": 188,
  "size_y": 188,
  "size_z": 46,
  "snr": 1.9408375291603839,
  "spacing_tr": 2.5999999046325684,
  "spacing_x": 1.0957447290420532,
  "spacing_y": 1.0957447290420532,
  "spacing_z": 1.0999997854232788,
  "summary_bg_k": 42.99919405990093,
  "summary_bg_mad": 40.02037942908649,
  "summary_bg_mean": 122.37122344970703,
  "summary_bg_median": 68.26667022705078,
  "summary_bg_n": 1017954.0,
  "summary_bg_p05": 34.60000228881836,
  "summary_bg_p95": 355.6933288574219,
