{
  "aor": 0.0007978666666666667,
  "aqi": 0.013952449333333335,
  "bids_meta": {
    "AcquisitionMatrixPE": 188,
    "AcquisitionNumber": 1,
    "AcquisitionTime": "16:11:9.287500",
    "BandwidthPerPixelPhaseEncode": 19.46,
    "BaseResolution": 188,
    "CogAtlasID": "TODO",
    "ConversionSoftware": "dcm2niix",
    "ConversionSoftwareVersion": "v1.0.20180606 GCC4.8.5",
    "DelayTime": 1.2,
    "DerivedVendorReportedEchoSpacing": 0.000820013,
    "DeviceSerialNumber": "18930",
    "DwellTime": 1.9e-06,
    "EchoTime": 0.02,
    "EffectiveEchoSpacing": 0.000273338,
    "FlipAngle": 80,
    "ImageComments": "Unaliased_MB2_PE2",
    "ImageOrientationPatientDICOM": [
      0.999544,
      -0.0160305,
      -0.0255933,
      -0.0217359,
      0.206462,
      -0.978213
    ],
    "ImageType": [
      "ORIGINAL",
      "PRIMARY",
      "M",
      "MB",
      "ND",
      "MOSAIC"
    ],
    "InPlanePhaseEncodingDirectionDICOM": "COL",
    "InstitutionAddress": "Oxfordlaan_55_Maastricht_753AAF_Limburg_NL_6229_EV",
    "InstitutionName": "Scannexus",
    "InstitutionalDepartmentName": "MRI_7T",
    "MRAcquisitionType": "2D",
    "MagneticFieldStrength": 6.98,
    "Manufacturer": "Siemens",
    "ManufacturersModelName": "Investigational_Device_7T",
    "Modality": "MR",
    "MultibandAccelerationFactor": 2,
    "ParallelReductionFactorInPlane": 3,
    "PartialFourier": 0.75,
    "PatientPosition": "HFS",
    "PercentPhaseFOV": 100,
    "PhaseEncodingDirection": "j",
    "PhaseEncodingSteps": 141,
    "PhaseResolution": 1,
    "PixelBandwidth": 1400,
    "ProcedureStepDescription": "FeDem_Faruk",
    "ProtocolName": "cmrr_mbep2d_bold_AP_run7",
    "PulseSequenceDetails": "%CustomerSeq%_cmrr_mbep2d_bold",
    "ReceiveCoilName": "32Ch_Head_7T",
    "ReconMatrixPE": 188,
    "RepetitionTime": 2.6,
    "SAR": 0.106259,
    "ScanOptions": "PFP_FS",
    "ScanningSequence": "EP",
    "SequenceName": "epfid2d1_188",
    "SequenceVariant": "SK_SS",
    "SeriesDescription": "cmrr_mbep2d_bold_AP_run7",
    "SeriesNumber": 20,
    "ShimSetting": [
      51,
      -85,
      379,
      540,
      17,
      417,
      89,
      118
    ],
    "SliceThickness": 1.1,
    "SliceTiming": [
      0,
      0.735,
      0.0625,
      0.795,
      0.1225,
      0.8575,
      0.185,
      0.9175,
      0.245,
      0.9775,
      0.3075,
      1.04,
      0.3675,
      1.1,
      0.4275,
      1.1625,
      0.49,
      1.2225,
      0.55,
      1.285,
      0.6125,
      1.345,
      0.6725,
      0,
      0.735,
      0.0625,
      0.795,
      0.1225,
      0.8575,
      0.185,
      0.9175,
      0.245,
      0.9775,
      0.3075,
      1.04,
      0.3675,
      1.1,
      0.4275,
      1.1625,
      0.49,
      1.2225,
      0.55,
      1.285,
      0.6125,
      1.345,
      0.6725
    ],
    "SoftwareVersions": "syngo_MR_B17",
    "SpacingBetweenSlices": 1.1,
    "StationName": "MRC18930",
    "TaskName": "auditory",
    "TotalReadoutTime": 0.0511141,
    "TxRefAmp": 240,
    "dataset": "ds001942",
    "dcmmeta_affine": [
      [
        -1.0952450037002563,
        -0.023816999047994614,
        -0.023061836138367653,
        111.5621109008789
      ],
      [
        0.017565375193953514,
        0.2262294888496399,
        -1.0761550664901733,
        24.640995025634766
      ],
      [
        -0.028043698519468307,
        1.0718719959259033,
        0.22662104666233063,
        -108.53646850585938
      ],
      [
        0.0,
        0.0,
        0.0,
        1.0
      ]
    ],
    "dcmmeta_reorient_transform": [
      [
        0.0,
        -1.0,
        0.0,
        187.0
      ],
      [
        1.0,
        0.0,
        0.0,
        0.0
      ],
      [
        0.0,
        0.0,
        1.0,
        0.0
      ],
      [
        0.0,
        0.0,
        0.0,
        1.0
      ]
    ],
    "dcmmeta_shape": [
      188,
      188,
      46,
      150
    ],
    "dcmmeta_slice_dim": 2,
    "dcmmeta_version": 0.6,
    "global": {
      "const": {
        "AcquisitionMatrix": [
          188,
          0,
          0,
          188
        ],
        "AngioFlag": "N",
        "BitsAllocated": 16,
        "BitsStored": 12,
        "Columns": 1316,
        "EchoNumbers": 1,
        "EchoTime": 20.0,
        "EchoTrainLength": 1,
        "FlipAngle": 80.0,
        "HighBit": 11,
        "ImageOrientationPatient": [
          0.99954389901482,
          -0.0160305364317,
          -0.0255932773198,
          -0.0217359010372,
          0.20646185470948,
          -0.9782131941229
        ],
        "ImagePositionPatient": [
          -711.39369821386,
          -184.6324684504,
          712.25601335786
        ],
        "ImageType": [
          "ORIGINAL",
          "PRIMARY",
          "M",
          "MB",
          "ND",
          "MOSAIC"
        ],
        "ImagedNucleus": "1H",
        "ImagingFrequency": 297.205584,
        "InPlanePhaseEncodingDirection": "COL",
        "LargestImagePixelValue": 4095,
        "MRAcquisitionType": "2D",
        "MagneticFieldStrength": 6.98,
        "Manufacturer": "SIEMENS",
        "ManufacturerModelName": "Investigational_Device_7T",
        "Modality": "MR",
        "NumberOfAverages": 1.0,
        "NumberOfPhaseEncodingSteps": 141,
        "PercentPhaseFieldOfView": 100.0,
        "PercentSampling": 100.0,
        "PerformedProcedureStepStartTime": "145652.921000",
        "PhotometricInterpretation": "MONOCHROME2",
        "PixelBandwidth": 1400.0,
        "PixelRepresentation": 0,
        "PixelSpacing": [
          1.0957447290421,
          1.0957447290421
        ],
        "ProtocolName": "cmrr_mbep2d_bold_AP_run7",
        "RepetitionTime": 2600.0,
        "Rows": 1316,
        "SAR": 0.10625860564605,
        "SamplesPerPixel": 1,
        "ScanOptions": [
          "PFP",
          "FS"
        ],
        "ScanningSequence": "EP",
        "SequenceName": "epfid2d1_188",
        "SequenceVariant": [
          "SK",
          "SS"
        ],
        "SeriesDescription": "cmrr_mbep2d_bold_AP_run7",
        "SeriesNumber": 20,
        "SeriesTime": "161118.437000",
        "SliceLocation": -48.806395968835,
        "SliceThickness": 1.1000000238419,
        "SmallestImagePixelValue": 0,
        "SoftwareVersions": "syngo MR B17",
        "SpacingBetweenSlices": 1.0999993978041,
        "SpecificCharacterSet": "ISO_IR 100",
        "StudyID": "1",
        "StudyTime": "145652.875000",
        "TransmitCoilName": "32Ch_Head_7T",
        "VariableFlipAngleFlag": "N",
        "WindowCenterWidthExplanation": "Algo1",
        "dBdt": 0.0
      },
      "slices": {}
    },
    "modality": "bold",
    "run_id": 7,
    "session_id": "SES03",
    "subject_id": "S08",
    "task_id": "auditory",
    "time": {
      "samples": {
        "AcquisitionNumber": [
          1,
          2,
          3,
          4,
          5,
          6,
          7,
          8,
          9,
          10,
          11,
          12,
          13,
          14,
          15,
          16,
          17,
          18,
          19,
          20,
          21,
          22,
          23,
          24,
          25,
          26,
          27,
          28,
          29,
          30,
          31,
          32,
          33,
          34,
          35,
          36,
          37,
          38,
          39,
          40,
          41,
          42,
          43,
          44,
          45,
          46,
          47,
          48,
          49,
          50,
          51,
          52,
          53,
          54,
          55,
          56,
          57,
          58,
          59,
          60,
          61,
          62,
          63,
          64,
          65,
          66,
          67,
          68,
          69,
          70,
          71,
          72,
          73,
          74,
          75,
          76,
          77,
          78,
          79,
          80,
          81,
          82,
          83,
          84,
          85,
          86,
          87,
          88,
          89,
          90,
          91,
          92,
          93,
          94,
          95,
          96,
          97,
          98,
          99,
          100,
          101,
          102,
          103,
          104,
          105,
          106,
          107,
          108,
          109,
          110,
          111,
          112,
          113,
          114,
          115,
          116,
          117,
          118,
          119,
          120,
          121,
          122,
          123,
          124,
          125,
          126,
          127,
          128,
          129,
          130,
          131,
          132,
          133,
          134,
          135,
          136,
          137,
          138,
          139,
          140,
          141,
          142,
          143,
          144,
          145,
          146,
          147,
          148,
          149,
          150
        ],
        "AcquisitionTime": [
          "161109.287500",
          "161111.900000",
          "161114.510000",
          "161117.120000",
          "161119.730000",
          "161122.340000",
          "161124.950000",
          "161127.562500",
          "161130.172500",
          "161132.782500",
          "161135.392500",
          "161138.002500",
          "161140.612500",
          "161143.225000",
          "161145.835000",
          "161148.445000",
          "161151.055000",
          "161153.665000",
          "161156.277500",
          "161158.887500",
          "161201.497500",
          "161204.107500",
          "161206.717500",
          "161209.327500",
          "161211.940000",
          "161214.550000",
          "161217.160000",
          "161219.770000",
          "161222.380000",
          "161224.992500",
          "161227.602500",
          "161230.212500",
          "161232.822500",
          "161235.432500",
          "161238.042500",
          "161240.655000",
          "161243.265000",
          "161245.875000",
          "161248.485000",
          "161251.095000",
          "161253.705000",
          "161256.317500",
          "161258.927500",
          "161301.537500",
          "161304.147500",
          "161306.757500",
          "161309.370000",
          "161311.980000",
          "161314.590000",
          "161317.200000",
          "161319.810000",
          "161322.420000",
          "161325.032500",
          "161327.642500",
          "161330.252500",
          "161332.862500",
          "161335.472500",
          "161338.082500",
          "161340.695000",
          "161343.305000",
          "161345.915000",
          "161348.525000",
          "161351.135000",
          "161353.747500",
          "161356.357500",
          "161358.967500",
          "161401.577500",
          "161404.187500",
          "161406.797500",
          "161409.410000",
          "161412.020000",
          "161414.630000",
          "161417.240000",
          "161419.850000",
          "161422.460000",
          "161425.072500",
          "161427.682500",
          "161430.292500",
          "161432.902500",
          "161435.512500",
          "161438.125000",
          "161440.735000",
          "161443.345000",
          "161445.955000",
          "161448.565000",
          "161451.175000",
          "161453.787500",
          "161456.397500",
          "161459.007500",
          "161501.617500",
          "161504.227500",
          "161506.837500",
          "161509.450000",
          "161512.060000",
          "161514.670000",
          "161517.280000",
          "161519.890000",
          "161522.502500",
          "161525.112500",
          "161527.722500",
          "161530.332500",
          "161532.942500",
          "161535.552500",
          "161538.165000",
          "161540.775000",
          "161543.385000",
          "161545.995000",
          "161548.605000",
          "161551.215000",
          "161553.827500",
          "161556.437500",
          "161559.047500",
          "161601.657500",
          "161604.267500",
          "161606.880000",
          "161609.490000",
          "161612.100000",
          "161614.710000",
          "161617.320000",
          "161619.930000",
          "161622.542500",
          "161625.152500",
          "161627.762500",
          "161630.372500",
          "161632.982500",
          "161635.592500",
          "161638.205000",
          "161640.815000",
          "161643.425000",
          "161646.035000",
          "161648.645000",
          "161651.257500",
          "161653.867500",
          "161656.477500",
          "161659.087500",
          "161701.697500",
          "161704.307500",
          "161706.920000",
          "161709.530000",
          "161712.140000",
          "161714.750000",
          "161717.360000",
          "161719.970000",
          "161722.582500",
          "161725.192500",
          "161727.802500",
          "161730.412500",
          "161733.022500",
          "161735.635000",
          "161738.245000"
        ],
        "ContentTime": [
          "161118.453000",
          "161118.453000",
          "161118.937000",
          "161121.437000",
          "161123.937000",
          "161126.437000",
          "161129.437000",
          "161131.937000",
          "161134.437000",
          "161136.937000",
          "161139.437000",
          "161142.437000",
          "161144.937000",
          "161147.437000",
          "161149.937000",
          "161152.437000",
          "161155.437000",
          "161157.937000",
          "161200.437000",
          "161202.937000",
          "161205.437000",
          "161208.437000",
          "161210.937000",
          "161213.437000",
          "161215.937000",
          "161218.437000",
          "161221.437000",
          "161223.937000",
          "161226.437000",
          "161228.937000",
          "161231.437000",
          "161234.437000",
          "161236.937000",
          "161239.437000",
          "161241.937000",
          "161244.437000",
          "161247.437000",
          "161249.937000",
          "161252.437000",
          "161254.937000",
          "161257.937000",
          "161300.437000",
          "161302.937000",
          "161305.437000",
          "161307.937000",
          "161310.437000",
          "161313.437000",
          "161315.937000",
          "161318.437000",
          "161320.937000",
          "161323.437000",
          "161326.437000",
          "161328.937000",
          "161331.437000",
          "161333.937000",
          "161336.437000",
          "161339.437000",
          "161341.937000",
          "161344.437000",
          "161346.937000",
          "161349.437000",
          "161352.437000",
          "161354.937000",
          "161357.437000",
          "161359.937000",
          "161402.437000",
          "161405.437000",
          "161407.937000",
          "161410.437000",
          "161412.937000",
          "161415.437000",
          "161418.437000",
          "161420.937000",
          "161423.437000",
          "161425.937000",
          "161428.437000",
          "161431.437000",
          "161433.937000",
          "161436.437000",
          "161438.937000",
          "161441.437000",
          "161444.437000",
          "161446.937000",
          "161449.437000",
          "161451.937000",
          "161454.437000",
          "161457.437000",
          "161459.937000",
          "161502.437000",
          "161504.937000",
          "161507.937000",
          "161510.437000",
          "161512.937000",
          "161515.437000",
          "161517.937000",
          "161520.437000",
          "161523.437000",
          "161525.937000",
          "161528.437000",
          "161530.937000",
          "161533.937000",
          "161536.437000",
          "161538.937000",
          "161541.437000",
          "161543.937000",
          "161546.437000",
          "161549.437000",
          "161551.937000",
          "161554.437000",
          "161556.937000",
          "161559.437000",
          "161602.437000",
          "161604.937000",
          "161607.437000",
          "161609.937000",
          "161612.437000",
          "161615.437000",
          "161617.937000",
          "161620.437000",
          "161622.937000",
          "161625.437000",
          "161628.437000",
          "161630.937000",
          "161633.437000",
          "161635.937000",
          "161638.437000",
          "161641.437000",
          "161643.937000",
          "161646.437000",
          "161648.937000",
          "161651.437000",
          "161654.437000",
          "161656.937000",
          "161659.437000",
          "161701.937000",
          "161704.437000",
          "161707.437000",
          "161709.937000",
          "161712.437000",
          "161714.937000",
          "161717.937000",
          "161720.437000",
          "161722.937000",
          "161725.437000",
          "161727.937000",
          "161730.437000",
          "161733.437000",
          "161735.937000",
          "161738.437000",
          "161745.781000"
        ],
        "InstanceCreationTime": [
          "161118.453000",
          "161118.453000",
          "161118.937000",
          "161121.437000",
          "161123.937000",
          "161126.437000",
          "161129.437000",
          "161131.937000",
          "161134.437000",
          "161136.937000",
          "161139.437000",
          "161142.437000",
          "161144.937000",
          "161147.437000",
          "161149.937000",
          "161152.437000",
          "161155.437000",
          "161157.937000",
          "161200.437000",
          "161202.937000",
          "161205.437000",
          "161208.437000",
          "161210.937000",
          "161213.437000",
          "161215.937000",
          "161218.437000",
          "161221.437000",
          "161223.937000",
          "161226.437000",
          "161228.937000",
          "161231.437000",
          "161234.437000",
          "161236.937000",
          "161239.437000",
          "161241.937000",
          "161244.437000",
          "161247.437000",
          "161249.937000",
          "161252.437000",
          "161254.937000",
          "161257.937000",
          "161300.437000",
          "161302.937000",
          "161305.437000",
          "161307.937000",
          "161310.437000",
          "161313.437000",
          "161315.937000",
          "161318.437000",
          "161320.937000",
          "161323.437000",
          "161326.437000",
          "161328.937000",
          "161331.437000",
          "161333.937000",
          "161336.437000",
          "161339.437000",
          "161341.937000",
          "161344.437000",
          "161346.937000",
          "161349.437000",
          "161352.437000",
          "161354.937000",
          "161357.437000",
          "161359.937000",
          "161402.437000",
          "161405.437000",
          "161407.937000",
          "161410.437000",
          "161412.937000",
          "161415.437000",
          "161418.437000",
          "161420.937000",
          "161423.437000",
          "161425.937000",
          "161428.437000",
          "161431.437000",
          "161433.937000",
          "161436.437000",
          "161438.937000",
          "161441.437000",
          "161444.437000",
          "161446.937000",
          "161449.437000",
          "161451.937000",
          "161454.437000",
          "161457.437000",
          "161459.937000",
          "161502.437000",
          "161504.937000",
          "161507.937000",
          "161510.437000",
          "161512.937000",
          "161515.437000",
          "161517.937000",
          "161520.437000",
          "161523.437000",
          "161525.937000",
          "161528.437000",
          "161530.937000",
          "161533.937000",
          "161536.437000",
          "161538.937000",
          "161541.437000",
          "161543.937000",
          "161546.437000",
          "161549.437000",
          "161551.937000",
          "161554.437000",
          "161556.937000",
          "161559.437000",
          "161602.437000",
          "161604.937000",
          "161607.437000",
          "161609.937000",
          "161612.437000",
          "161615.437000",
          "161617.937000",
          "161620.437000",
          "161622.937000",
          "161625.437000",
          "161628.437000",
          "161630.937000",
          "161633.437000",
          "161635.937000",
          "161638.437000",
          "161641.437000",
          "161643.937000",
          "161646.437000",
          "161648.937000",
          "161651.437000",
          "161654.437000",
          "161656.937000",
          "161659.437000",
          "161701.937000",
          "161704.437000",
          "161707.437000",
          "161709.937000",
          "161712.437000",
          "161714.937000",
          "161717.937000",
          "161720.437000",
          "161722.937000",
          "161725.437000",
          "161727.937000",
          "161730.437000",
          "161733.437000",
          "161735.937000",
          "161738.437000",
          "161745.781000"
        ],
        "InstanceNumber": [
          1,
          2,
          3,
          4,
          5,
          6,
          7,
          8,
          9,
          10,
          11,
          12,
          13,
          14,
          15,
          16,
          17,
          18,
          19,
          20,
          21,
          22,
          23,
          24,
          25,
          26,
          27,
          28,
          29,
          30,
          31,
          32,
          33,
          34,
          35,
          36,
          37,
          38,
          39,
          40,
          41,
          42,
          43,
          44,
          45,
          46,
          47,
          48,
          49,
          50,
          51,
          52,
          53,
          54,
          55,
          56,
          57,
          58,
          59,
          60,
          61,
          62,
          63,
          64,
          65,
          66,
          67,
          68,
          69,
          70,
          71,
          72,
          73,
          74,
          75,
          76,
          77,
          78,
          79,
          80,
          81,
          82,
          83,
          84,
          85,
          86,
          87,
          88,
          89,
          90,
          91,
          92,
          93,
          94,
          95,
          96,
          97,
          98,
          99,
          100,
          101,
          102,
          103,
          104,
          105,
          106,
          107,
          108,
          109,
          110,
          111,
          112,
          113,
          114,
          115,
          116,
          117,
          118,
          119,
          120,
          121,
          122,
          123,
          124,
          125,
          126,
          127,
          128,
          129,
          130,
          131,
          132,
          133,
          134,
          135,
          136,
          137,
          138,
          139,
          140,
          141,
          142,
          143,
          144,
          145,
          146,
          147,
          148,
          149,
          150
        ],
        "WindowCenter": [
          822.0,
          822.0,
          821.0,
          821.0,
          820.0,
          821.0,
          821.0,
          821.0,
          821.0,
          821.0,
          821.0,
          822.0,
          822.0,
          822.0,
          822.0,
          822.0,
          822.0,
          821.0,
          819.0,
          820.0,
          821.0,
          821.0,
          820.0,
          821.0,
          820.0,
          821.0,
          821.0,
          820.0,
          821.0,
          822.0,
          822.0,
          821.0,
          822.0,
          823.0,
          822.0,
          822.0,
          822.0,
          823.0,
          823.0,
          823.0,
          823.0,
          823.0,
          823.0,
          822.0,
          823.0,
          822.0,
          822.0,
          822.0,
          822.0,
          822.0,
          822.0,
          822.0,
          823.0,
          823.0,
          821.0,
          820.0,
          820.0,
          822.0,
          822.0,
          820.0,
          819.0,
          819.0,
          819.0,
          819.0,
          820.0,
          820.0,
          820.0,
          820.0,
          821.0,
          822.0,
          822.0,
          821.0,
          820.0,
          820.0,
          820.0,
          820.0,
          821.0,
          821.0,
          821.0,
          821.0,
          821.0,
          821.0,
          821.0,
          822.0,
          821.0,
          821.0,
          820.0,
          821.0,
          822.0,
          823.0,
          823.0,
          822.0,
          821.0,
          821.0,
          821.0,
          821.0,
          821.0,
          821.0,
          822.0,
          822.0,
          823.0,
          823.0,
          824.0,
          822.0,
          822.0,
          821.0,
          822.0,
          823.0,
          823.0,
          822.0,
          822.0,
          822.0,
          822.0,
          822.0,
          822.0,
          823.0,
          824.0,
          822.0,
          822.0,
          822.0,
          821.0,
          823.0,
          822.0,
          822.0,
          822.0,
          822.0,
          823.0,
          822.0,
          821.0,
          822.0,
          823.0,
          823.0,
          823.0,
          823.0,
          823.0,
          822.0,
          822.0,
          823.0,
          822.0,
          823.0,
          823.0,
          823.0,
          824.0,
          824.0,
          823.0,
          823.0,
          823.0,
          822.0,
          821.0,
          824.0
        ],
        "WindowWidth": [
          1905.0,
          1905.0,
          1903.0,
          1901.0,
          1899.0,
          1902.0,
          1903.0,
          1903.0,
          1903.0,
          1903.0,
          1904.0,
          1907.0,
          1905.0,
          1906.0,
          1908.0,
          1906.0,
          1907.0,
          1902.0,
          1896.0,
          1898.0,
          1900.0,
          1902.0,
          1900.0,
          1901.0,
          1899.0,
          1901.0,
          1902.0,
          1901.0,
          1902.0,
          1906.0,
          1905.0,
          1903.0,
          1905.0,
          1909.0,
          1908.0,
          1905.0,
          1907.0,
          1909.0,
          1911.0,
          1908.0,
          1909.0,
          1909.0,
          1908.0,
          1906.0,
          1910.0,
          1906.0,
          1908.0,
          1907.0,
          1905.0,
          1905.0,
          1906.0,
          1905.0,
          1911.0,
          1908.0,
          1901.0,
          1898.0,
          1900.0,
          1906.0,
          1905.0,
          1898.0,
          1895.0,
          1894.0,
          1895.0,
          1896.0,
          1898.0,
          1896.0,
          1896.0,
          1898.0,
          1903.0,
          1907.0,
          1906.0,
          1903.0,
          1901.0,
          1897.0,
          1900.0,
          1899.0,
          1902.0,
          1904.0,
          1902.0,
          1903.0,
          1904.0,
          1904.0,
          1904.0,
          1906.0,
          1904.0,
          1904.0,
          1900.0,
          1902.0,
          1909.0,
          1913.0,
          1910.0,
          1908.0,
          1904.0,
          1903.0,
          1903.0,
          1904.0,
          1904.0,
          1903.0,
          1905.0,
          1907.0,
          1908.0,
          1911.0,
          1913.0,
          1906.0,
          1906.0,
          1903.0,
          1905.0,
          1909.0,
          1908.0,
          1905.0,
          1907.0,
          1906.0,
          1906.0,
          1906.0,
          1907.0,
          1910.0,
          1911.0,
          1907.0,
          1903.0,
          1906.0,
          1903.0,
          1910.0,
          1905.0,
          1903.0,
          1905.0,
          1907.0,
          1907.0,
          1906.0,
          1902.0,
          1904.0,
          1907.0,
          1910.0,
          1909.0,
          1911.0,
          1909.0,
          1904.0,
          1906.0,
          1906.0,
          1905.0,
          1909.0,
          1910.0,
          1909.0,
          1914.0,
          1912.0,
          1910.0,
          1911.0,
          1911.0,
          1904.0,
          1904.0,
          1913.0
        ]
      },
      "slices": {}
    }
  },
  "dummy_trs": 0,
  "dvars_nstd": 75.80872447416105,
  "dvars_std": 1.0918728535570472,
  "dvars_vstd": 1.0199232208053695,
  "efc": 0.533249650790321,
  "fber": 423.49212646484375,
  "fd_mean": 0.07589279698801649,
  "fd_num": 3,
  "fd_perc": 2.0,
  "fwhm_avg": 2.9482577274830195,
  "fwhm_x": 2.9075202604764065,
  "fwhm_y": 2.9390604532640223,
  "fwhm_z": 2.998192468708629,
  "gcor": 0.00285156,
  "gsr_x": -0.00637062219902873,
  "gsr_y": 0.0517871230840683,
  "provenance": {
    "md5sum": "f873e3a23bb10c0e62bd738485d5b44c",
    "settings": {
      "fd_thres": 0.2,
      "testing": false
    },
    "software": "mriqc",
    "version": "22.0.0rc1",
    "webapi_port": null,
    "webapi_url": "https://mriqc.nimh.nih.gov/api/v1"
  },
  "size_t": 150,
  "size_x": 188,
  "size_y": 188,
  "size_z": 46,
  "snr": 2.342558817845452,
  "spacing_tr": 2.5999999046325684,
  "spacing_x": 1.0957447290420532,
  "spacing_y": 1.0957447290420532,
  "spacing_z": 1.0999994277954102,
  "summary_bg_k": 78.82045250545632,
  "summary_bg_mad": 20.6674757177631,
  "summary_bg_mean": 78.06356811523438,
  "summary_bg_median": 45.26000213623047,
  "summary_bg_n": 1127613.0,
  "summary_bg_p05": 29.80000114440918,
