{
  "aor": 0.0007133333333333334,
  "aqi": 0.013523933999999998,
  "bids_meta": {
    "AcquisitionMatrixPE": 188,
    "AcquisitionNumber": 1,
    "AcquisitionTime": "16:18:50.185000",
    "BandwidthPerPixelPhaseEncode": 19.46,
    "BaseResolution": 188,
    "CogAtlasID": "TODO",
    "ConversionSoftware": "dcm2niix",
    "ConversionSoftwareVersion": "v1.0.20180606 GCC4.8.5",
    "DelayTime": 1.2,
    "DerivedVendorReportedEchoSpacing": 0.000820013,
    "DeviceSerialNumber": "18930",
    "DwellTime": 1.9e-06,
    "EchoTime": 0.02,
    "EffectiveEchoSpacing": 0.000273338,
    "FlipAngle": 80,
    "ImageComments": "Unaliased_MB2_PE2",
    "ImageOrientationPatientDICOM": [
      0.999544,
      -0.0160305,
      -0.0255933,
      -0.0217359,
      0.206462,
      -0.978213
    ],
    "ImageType": [
      "ORIGINAL",
      "PRIMARY",
      "M",
      "MB",
      "ND",
      "MOSAIC"
    ],
    "InPlanePhaseEncodingDirectionDICOM": "COL",
    "InstitutionAddress": "Oxfordlaan_55_Maastricht_753AAF_Limburg_NL_6229_EV",
    "InstitutionName": "Scannexus",
    "InstitutionalDepartmentName": "MRI_7T",
    "MRAcquisitionType": "2D",
    "MagneticFieldStrength": 6.98,
    "Manufacturer": "Siemens",
    "ManufacturersModelName": "Investigational_Device_7T",
    "Modality": "MR",
    "MultibandAccelerationFactor": 2,
    "ParallelReductionFactorInPlane": 3,
    "PartialFourier": 0.75,
    "PatientPosition": "HFS",
    "PercentPhaseFOV": 100,
    "PhaseEncodingDirection": "j",
    "PhaseEncodingSteps": 141,
    "PhaseResolution": 1,
    "PixelBandwidth": 1400,
    "ProcedureStepDescription": "FeDem_Faruk",
    "ProtocolName": "cmrr_mbep2d_bold_AP_run8",
    "PulseSequenceDetails": "%CustomerSeq%_cmrr_mbep2d_bold",
    "ReceiveCoilName": "32Ch_Head_7T",
    "ReconMatrixPE": 188,
    "RepetitionTime": 2.6,
    "SAR": 0.106218,
    "ScanOptions": "PFP_FS",
    "ScanningSequence": "EP",
    "SequenceName": "epfid2d1_188",
    "SequenceVariant": "SK_SS",
    "SeriesDescription": "cmrr_mbep2d_bold_AP_run8",
    "SeriesNumber": 21,
    "ShimSetting": [
      51,
      -85,
      379,
      540,
      17,
      417,
      89,
      118
    ],
    "SliceThickness": 1.1,
    "SliceTiming": [
      0,
      0.7325,
      0.06,
      0.795,
      0.1225,
      0.855,
      0.1825,
      0.9175,
      0.245,
      0.9775,
      0.305,
      1.0375,
      0.3675,
      1.1,
      0.4275,
      1.16,
      0.4875,
      1.2225,
      0.55,
      1.2825,
      0.61,
      1.345,
      0.6725,
      0,
      0.7325,
      0.06,
      0.795,
      0.1225,
      0.855,
      0.1825,
      0.9175,
      0.245,
      0.9775,
      0.305,
      1.0375,
      0.3675,
      1.1,
      0.4275,
      1.16,
      0.4875,
      1.2225,
      0.55,
      1.2825,
      0.61,
      1.345,
      0.6725
    ],
    "SoftwareVersions": "syngo_MR_B17",
    "SpacingBetweenSlices": 1.1,
    "StationName": "MRC18930",
    "TaskName": "auditory",
    "TotalReadoutTime": 0.0511141,
    "TxRefAmp": 240,
    "dataset": "ds001942",
    "dcmmeta_affine": [
      [
        -1.0952450037002563,
        -0.023816999047994614,
        -0.023061836138367653,
        111.5621109008789
      ],
      [
        0.017565375193953514,
        0.2262294888496399,
        -1.0761550664901733,
        24.640995025634766
      ],
      [
        -0.028043698519468307,
        1.0718719959259033,
        0.22662104666233063,
        -108.53646850585938
      ],
      [
        0.0,
        0.0,
        0.0,
        1.0
      ]
    ],
    "dcmmeta_reorient_transform": [
      [
        0.0,
        -1.0,
        0.0,
        187.0
      ],
      [
        1.0,
        0.0,
        0.0,
        0.0
      ],
      [
        0.0,
        0.0,
        1.0,
        0.0
      ],
      [
        0.0,
        0.0,
        0.0,
        1.0
      ]
    ],
    "dcmmeta_shape": [
      188,
      188,
      46,
      150
    ],
    "dcmmeta_slice_dim": 2,
    "dcmmeta_version": 0.6,
    "global": {
      "const": {
        "AcquisitionMatrix": [
          188,
          0,
          0,
          188
        ],
        "AngioFlag": "N",
        "BitsAllocated": 16,
        "BitsStored": 12,
        "Columns": 1316,
        "EchoNumbers": 1,
        "EchoTime": 20.0,
        "EchoTrainLength": 1,
        "FlipAngle": 80.0,
        "HighBit": 11,
        "ImageOrientationPatient": [
          0.99954389901482,
          -0.0160305364317,
          -0.0255932773198,
          -0.0217359010372,
          0.20646185470948,
          -0.9782131941229
        ],
        "ImagePositionPatient": [
          -711.39369821386,
          -184.6324684504,
          712.25601335786
        ],
        "ImageType": [
          "ORIGINAL",
          "PRIMARY",
          "M",
          "MB",
          "ND",
          "MOSAIC"
        ],
        "ImagedNucleus": "1H",
        "ImagingFrequency": 297.205585,
        "InPlanePhaseEncodingDirection": "COL",
        "LargestImagePixelValue": 4095,
        "MRAcquisitionType": "2D",
        "MagneticFieldStrength": 6.98,
        "Manufacturer": "SIEMENS",
        "ManufacturerModelName": "Investigational_Device_7T",
        "Modality": "MR",
        "NumberOfAverages": 1.0,
        "NumberOfPhaseEncodingSteps": 141,
        "PercentPhaseFieldOfView": 100.0,
        "PercentSampling": 100.0,
        "PerformedProcedureStepStartTime": "145652.921000",
        "PhotometricInterpretation": "MONOCHROME2",
        "PixelBandwidth": 1400.0,
        "PixelRepresentation": 0,
        "PixelSpacing": [
          1.0957447290421,
          1.0957447290421
        ],
        "ProtocolName": "cmrr_mbep2d_bold_AP_run8",
        "RepetitionTime": 2600.0,
        "Rows": 1316,
        "SAR": 0.10621763943903,
        "SamplesPerPixel": 1,
        "ScanOptions": [
          "PFP",
          "FS"
        ],
        "ScanningSequence": "EP",
        "SequenceName": "epfid2d1_188",
        "SequenceVariant": [
          "SK",
          "SS"
        ],
        "SeriesDescription": "cmrr_mbep2d_bold_AP_run8",
        "SeriesNumber": 21,
        "SeriesTime": "161858.796000",
        "SliceLocation": -48.806395968835,
        "SliceThickness": 1.1000000238419,
        "SmallestImagePixelValue": 0,
        "SoftwareVersions": "syngo MR B17",
        "SpacingBetweenSlices": 1.0999993978041,
        "SpecificCharacterSet": "ISO_IR 100",
        "StudyID": "1",
        "StudyTime": "145652.875000",
        "TransmitCoilName": "32Ch_Head_7T",
        "VariableFlipAngleFlag": "N",
        "WindowCenterWidthExplanation": "Algo1",
        "dBdt": 0.0
      },
      "slices": {}
    },
    "modality": "bold",
    "run_id": 8,
    "session_id": "SES03",
    "subject_id": "S08",
    "task_id": "auditory",
    "time": {
      "samples": {
        "AcquisitionNumber": [
          1,
          2,
          3,
          4,
          5,
          6,
          7,
          8,
          9,
          10,
          11,
          12,
          13,
          14,
          15,
          16,
          17,
          18,
          19,
          20,
          21,
          22,
          23,
          24,
          25,
          26,
          27,
          28,
          29,
          30,
          31,
          32,
          33,
          34,
          35,
          36,
          37,
          38,
          39,
          40,
          41,
          42,
          43,
          44,
          45,
          46,
          47,
          48,
          49,
          50,
          51,
          52,
          53,
          54,
          55,
          56,
          57,
          58,
          59,
          60,
          61,
          62,
          63,
          64,
          65,
          66,
          67,
          68,
          69,
          70,
          71,
          72,
          73,
          74,
          75,
          76,
          77,
          78,
          79,
          80,
          81,
          82,
          83,
          84,
          85,
          86,
          87,
          88,
          89,
          90,
          91,
          92,
          93,
          94,
          95,
          96,
          97,
          98,
          99,
          100,
          101,
          102,
          103,
          104,
          105,
          106,
          107,
          108,
          109,
          110,
          111,
          112,
          113,
          114,
          115,
          116,
          117,
          118,
          119,
          120,
          121,
          122,
          123,
          124,
          125,
          126,
          127,
          128,
          129,
          130,
          131,
          132,
          133,
          134,
          135,
          136,
          137,
          138,
          139,
          140,
          141,
          142,
          143,
          144,
          145,
          146,
          147,
          148,
          149,
          150
        ],
        "AcquisitionTime": [
          "161850.185000",
          "161852.795000",
          "161855.405000",
          "161858.015000",
          "161900.627500",
          "161903.237500",
          "161905.847500",
          "161908.457500",
          "161911.067500",
          "161913.680000",
          "161916.290000",
          "161918.900000",
          "161921.510000",
          "161924.120000",
          "161926.730000",
          "161929.342500",
          "161931.952500",
          "161934.562500",
          "161937.172500",
          "161939.782500",
          "161942.392500",
          "161945.005000",
          "161947.615000",
          "161950.225000",
          "161952.835000",
          "161955.445000",
          "161958.057500",
          "162000.667500",
          "162003.277500",
          "162005.887500",
          "162008.497500",
          "162011.107500",
          "162013.720000",
          "162016.330000",
          "162018.940000",
          "162021.550000",
          "162024.160000",
          "162026.770000",
          "162029.382500",
          "162031.992500",
          "162034.602500",
          "162037.212500",
          "162039.822500",
          "162042.435000",
          "162045.045000",
          "162047.655000",
          "162050.265000",
          "162052.875000",
          "162055.485000",
          "162058.097500",
          "162100.707500",
          "162103.317500",
          "162105.927500",
          "162108.537500",
          "162111.147500",
          "162113.760000",
          "162116.370000",
          "162118.980000",
          "162121.590000",
          "162124.200000",
          "162126.812500",
          "162129.422500",
          "162132.032500",
          "162134.642500",
          "162137.252500",
          "162139.862500",
          "162142.475000",
          "162145.085000",
          "162147.695000",
          "162150.305000",
          "162152.915000",
          "162155.525000",
          "162158.137500",
          "162200.747500",
          "162203.357500",
          "162205.967500",
          "162208.577500",
          "162211.190000",
          "162213.800000",
          "162216.410000",
          "162219.020000",
          "162221.630000",
          "162224.240000",
          "162226.852500",
          "162229.462500",
          "162232.072500",
          "162234.682500",
          "162237.292500",
          "162239.902500",
          "162242.515000",
          "162245.125000",
          "162247.735000",
          "162250.345000",
          "162252.955000",
          "162255.567500",
          "162258.177500",
          "162300.787500",
          "162303.397500",
          "162306.007500",
          "162308.617500",
          "162311.230000",
          "162313.840000",
          "162316.450000",
          "162319.060000",
          "162321.670000",
          "162324.280000",
          "162326.892500",
          "162329.502500",
          "162332.112500",
          "162334.722500",
          "162337.332500",
          "162339.945000",
          "162342.555000",
          "162345.165000",
          "162347.775000",
          "162350.385000",
          "162352.995000",
          "162355.607500",
          "162358.217500",
          "162400.827500",
          "162403.437500",
          "162406.047500",
          "162408.657500",
          "162411.270000",
          "162413.880000",
          "162416.490000",
          "162419.100000",
          "162421.710000",
          "162424.322500",
          "162426.932500",
          "162429.542500",
          "162432.152500",
          "162434.762500",
          "162437.372500",
          "162439.985000",
          "162442.595000",
          "162445.205000",
          "162447.815000",
          "162450.425000",
          "162453.035000",
          "162455.647500",
          "162458.257500",
          "162500.867500",
          "162503.477500",
          "162506.087500",
          "162508.700000",
          "162511.310000",
          "162513.920000",
          "162516.530000",
          "162519.140000"
        ],
        "ContentTime": [
          "161858.812000",
          "161858.812000",
          "161859.296000",
          "161901.796000",
          "161904.296000",
          "161907.296000",
          "161909.796000",
          "161912.296000",
          "161914.796000",
          "161917.296000",
          "161920.296000",
          "161922.796000",
          "161925.296000",
          "161927.796000",
          "161930.296000",
          "161933.296000",
          "161935.796000",
          "161938.296000",
          "161940.796000",
          "161943.296000",
          "161946.296000",
          "161948.796000",
          "161951.296000",
          "161953.796000",
          "161956.296000",
          "161959.296000",
          "162001.796000",
          "162004.296000",
          "162006.796000",
          "162009.296000",
          "162012.296000",
          "162014.796000",
          "162017.296000",
          "162019.796000",
          "162022.296000",
          "162025.296000",
          "162027.796000",
          "162030.296000",
          "162032.796000",
          "162035.296000",
          "162038.296000",
          "162040.796000",
          "162043.296000",
          "162045.796000",
          "162048.296000",
          "162051.296000",
          "162053.796000",
          "162056.296000",
          "162058.796000",
          "162101.296000",
          "162104.296000",
          "162106.796000",
          "162109.296000",
          "162111.796000",
          "162114.296000",
          "162117.296000",
          "162119.796000",
          "162122.296000",
          "162124.796000",
          "162127.296000",
          "162130.296000",
          "162132.796000",
          "162135.296000",
          "162137.796000",
          "162140.296000",
          "162143.296000",
          "162145.796000",
          "162148.296000",
          "162150.796000",
          "162153.296000",
          "162156.296000",
          "162158.796000",
          "162201.296000",
          "162203.796000",
          "162206.296000",
          "162209.296000",
          "162211.796000",
          "162214.296000",
          "162216.796000",
          "162219.296000",
          "162222.296000",
          "162224.796000",
          "162227.296000",
          "162229.796000",
          "162232.296000",
          "162235.296000",
          "162237.796000",
          "162240.296000",
          "162242.796000",
          "162245.296000",
          "162248.296000",
          "162250.796000",
          "162253.296000",
          "162255.796000",
          "162258.296000",
          "162301.296000",
          "162303.796000",
          "162306.296000",
          "162308.796000",
          "162311.296000",
          "162314.296000",
          "162316.796000",
          "162319.296000",
          "162321.796000",
          "162324.296000",
          "162327.296000",
          "162329.796000",
          "162332.296000",
          "162334.796000",
          "162337.296000",
          "162340.296000",
          "162342.796000",
          "162345.296000",
          "162347.796000",
          "162350.296000",
          "162353.296000",
          "162355.796000",
          "162358.296000",
          "162400.796000",
          "162403.296000",
          "162406.296000",
          "162408.796000",
          "162411.296000",
          "162413.796000",
          "162416.296000",
          "162419.296000",
          "162421.796000",
          "162424.296000",
          "162426.796000",
          "162429.296000",
          "162432.296000",
          "162434.796000",
          "162437.296000",
          "162439.796000",
          "162442.296000",
          "162445.296000",
          "162447.796000",
          "162450.296000",
          "162452.796000",
          "162455.296000",
          "162458.296000",
          "162500.796000",
          "162503.296000",
          "162505.796000",
          "162508.296000",
          "162511.296000",
          "162513.796000",
          "162516.296000",
          "162518.796000",
          "162526.203000"
        ],
        "InstanceCreationTime": [
          "161858.812000",
          "161858.812000",
          "161859.296000",
          "161901.796000",
          "161904.296000",
          "161907.296000",
          "161909.796000",
          "161912.296000",
          "161914.796000",
          "161917.296000",
          "161920.296000",
          "161922.796000",
          "161925.296000",
          "161927.796000",
          "161930.296000",
          "161933.296000",
          "161935.796000",
          "161938.296000",
          "161940.796000",
          "161943.296000",
          "161946.296000",
          "161948.796000",
          "161951.296000",
          "161953.796000",
          "161956.296000",
          "161959.296000",
          "162001.796000",
          "162004.296000",
          "162006.796000",
          "162009.296000",
          "162012.296000",
          "162014.796000",
          "162017.296000",
          "162019.796000",
          "162022.296000",
          "162025.296000",
          "162027.796000",
          "162030.296000",
          "162032.796000",
          "162035.296000",
          "162038.296000",
          "162040.796000",
          "162043.296000",
          "162045.796000",
          "162048.296000",
          "162051.296000",
          "162053.796000",
          "162056.296000",
          "162058.796000",
          "162101.296000",
          "162104.296000",
          "162106.796000",
          "162109.296000",
          "162111.796000",
          "162114.296000",
          "162117.296000",
          "162119.796000",
          "162122.296000",
          "162124.796000",
          "162127.296000",
          "162130.296000",
          "162132.796000",
          "162135.296000",
          "162137.796000",
          "162140.296000",
          "162143.296000",
          "162145.796000",
          "162148.296000",
          "162150.796000",
          "162153.296000",
          "162156.296000",
          "162158.796000",
          "162201.296000",
          "162203.796000",
          "162206.296000",
          "162209.296000",
          "162211.796000",
          "162214.296000",
          "162216.796000",
          "162219.296000",
          "162222.296000",
          "162224.796000",
          "162227.296000",
          "162229.796000",
          "162232.296000",
          "162235.296000",
          "162237.796000",
          "162240.296000",
          "162242.796000",
          "162245.296000",
          "162248.296000",
          "162250.796000",
          "162253.296000",
          "162255.796000",
          "162258.296000",
          "162301.296000",
          "162303.796000",
          "162306.296000",
          "162308.796000",
          "162311.296000",
          "162314.296000",
          "162316.796000",
          "162319.296000",
          "162321.796000",
          "162324.296000",
          "162327.296000",
          "162329.796000",
          "162332.296000",
          "162334.796000",
          "162337.296000",
          "162340.296000",
          "162342.796000",
          "162345.296000",
          "162347.796000",
          "162350.296000",
          "162353.296000",
          "162355.796000",
          "162358.296000",
          "162400.796000",
          "162403.296000",
          "162406.296000",
          "162408.796000",
          "162411.296000",
          "162413.796000",
          "162416.296000",
          "162419.296000",
          "162421.796000",
          "162424.296000",
          "162426.796000",
          "162429.296000",
          "162432.296000",
          "162434.796000",
          "162437.296000",
          "162439.796000",
          "162442.296000",
          "162445.296000",
          "162447.796000",
          "162450.296000",
          "162452.796000",
          "162455.296000",
          "162458.296000",
          "162500.796000",
          "162503.296000",
          "162505.796000",
          "162508.296000",
          "162511.296000",
          "162513.796000",
          "162516.296000",
          "162518.796000",
          "162526.203000"
        ],
        "InstanceNumber": [
          1,
          2,
          3,
          4,
          5,
          6,
          7,
          8,
          9,
          10,
          11,
          12,
          13,
          14,
          15,
          16,
          17,
          18,
          19,
          20,
          21,
          22,
          23,
          24,
          25,
          26,
          27,
          28,
          29,
          30,
          31,
          32,
          33,
          34,
          35,
          36,
          37,
          38,
          39,
          40,
          41,
          42,
          43,
          44,
          45,
          46,
          47,
          48,
          49,
          50,
          51,
          52,
          53,
          54,
          55,
          56,
          57,
          58,
          59,
          60,
          61,
          62,
          63,
          64,
          65,
          66,
          67,
          68,
          69,
          70,
          71,
          72,
          73,
          74,
          75,
          76,
          77,
          78,
          79,
          80,
          81,
          82,
          83,
          84,
          85,
          86,
          87,
          88,
          89,
          90,
          91,
          92,
          93,
          94,
          95,
          96,
          97,
          98,
          99,
          100,
          101,
          102,
          103,
          104,
          105,
          106,
          107,
          108,
          109,
          110,
          111,
          112,
          113,
          114,
          115,
          116,
          117,
          118,
          119,
          120,
          121,
          122,
          123,
          124,
          125,
          126,
          127,
          128,
          129,
          130,
          131,
          132,
          133,
          134,
          135,
          136,
          137,
          138,
          139,
          140,
          141,
          142,
          143,
          144,
          145,
          146,
          147,
          148,
          149,
          150
        ],
        "WindowCenter": [
          823.0,
          824.0,
          824.0,
          824.0,
          825.0,
          823.0,
          823.0,
          823.0,
          823.0,
          823.0,
          823.0,
          824.0,
          823.0,
          822.0,
          821.0,
          822.0,
          823.0,
          824.0,
          824.0,
          823.0,
          822.0,
          823.0,
          823.0,
          823.0,
          822.0,
          822.0,
          821.0,
          821.0,
          823.0,
          823.0,
          822.0,
          822.0,
          822.0,
          823.0,
          825.0,
          825.0,
          824.0,
          823.0,
          822.0,
          822.0,
          822.0,
          822.0,
          823.0,
          824.0,
          825.0,
          825.0,
          826.0,
          825.0,
          824.0,
          824.0,
          823.0,
          822.0,
          822.0,
          823.0,
          823.0,
          823.0,
          822.0,
          823.0,
          823.0,
          823.0,
          822.0,
          822.0,
          822.0,
          823.0,
          823.0,
          822.0,
          822.0,
          822.0,
          822.0,
          823.0,
          823.0,
          822.0,
          822.0,
          823.0,
          823.0,
          822.0,
          823.0,
          822.0,
          824.0,
          824.0,
          823.0,
          822.0,
          823.0,
          822.0,
          822.0,
          822.0,
          822.0,
          822.0,
          822.0,
          822.0,
          821.0,
          822.0,
          822.0,
          822.0,
          822.0,
          822.0,
          822.0,
          822.0,
          822.0,
          822.0,
          823.0,
          823.0,
          823.0,
          822.0,
          822.0,
          821.0,
          822.0,
          822.0,
          822.0,
          822.0,
          822.0,
          822.0,
          822.0,
          823.0,
          822.0,
          822.0,
          823.0,
          824.0,
          823.0,
          822.0,
          822.0,
          823.0,
          823.0,
          823.0,
          822.0,
          822.0,
          821.0,
          821.0,
          821.0,
          822.0,
          822.0,
          821.0,
          822.0,
          822.0,
          822.0,
          821.0,
          822.0,
          823.0,
          823.0,
          822.0,
          823.0,
          822.0,
          823.0,
          823.0,
          823.0,
          823.0,
          825.0,
          824.0,
          822.0,
          821.0
        ],
        "WindowWidth": [
          1910.0,
          1912.0,
          1912.0,
          1916.0,
          1915.0,
          1909.0,
          1908.0,
          1911.0,
          1911.0,
          1909.0,
          1912.0,
          1912.0,
          1910.0,
          1906.0,
          1903.0,
          1905.0,
          1912.0,
          1916.0,
          1914.0,
          1908.0,
          1906.0,
          1909.0,
          1912.0,
          1912.0,
          1909.0,
          1907.0,
          1903.0,
          1902.0,
          1910.0,
          1911.0,
          1909.0,
          1906.0,
          1905.0,
          1912.0,
          1917.0,
          1919.0,
          1916.0,
          1909.0,
          1907.0,
          1905.0,
          1908.0,
          1906.0,
          1911.0,
          1914.0,
          1917.0,
          1920.0,
          1922.0,
          1915.0,
          1915.0,
          1916.0,
          1909.0,
          1907.0,
          1908.0,
          1911.0,
          1910.0,
          1909.0,
          1906.0,
          1908.0,
          1909.0,
          1910.0,
          1905.0,
          1906.0,
          1906.0,
          1909.0,
          1909.0,
          1906.0,
          1907.0,
          1904.0,
          1905.0,
          1910.0,
          1908.0,
          1904.0,
          1905.0,
          1909.0,
          1908.0,
          1908.0,
          1907.0,
          1909.0,
          1913.0,
          1913.0,
          1908.0,
          1907.0,
          1908.0,
          1907.0,
          1906.0,
          1904.0,
          1906.0,
          1906.0,
          1904.0,
          1904.0,
          1903.0,
          1905.0,
          1907.0,
          1906.0,
          1906.0,
          1908.0,
          1907.0,
          1907.0,
          1906.0,
          1906.0,
          1908.0,
          1908.0,
          1909.0,
          1907.0,
          1906.0,
          1903.0,
          1906.0,
          1905.0,
          1904.0,
          1904.0,
          1905.0,
          1904.0,
          1903.0,
          1908.0,
          1906.0,
          1904.0,
          1910.0,
          1914.0,
          1910.0,
          1905.0,
          1906.0,
          1908.0,
          1910.0,
          1908.0,
          1905.0,
          1904.0,
          1901.0,
          1900.0,
          1902.0,
          1905.0,
          1905.0,
          1903.0,
          1905.0,
          1907.0,
          1903.0,
          1902.0,
          1906.0,
          1907.0,
          1908.0,
          1907.0,
          1908.0,
          1907.0,
          1908.0,
          1911.0,
          1908.0,
          1910.0,
          1916.0,
          1912.0,
          1906.0,
          1901.0
        ]
      },
      "slices": {}
    }
  },
  "dummy_trs": 0,
  "dvars_nstd": 76.3425084056376,
  "dvars_std": 1.097001887785234,
  "dvars_vstd": 1.025089283758389,
  "efc": 0.5330879218050013,
  "fber": 420.9783935546875,
  "fd_mean": 0.07040836005584933,
  "fd_num": 4,
  "fd_perc": 2.6666666666666665,
  "fwhm_avg": 2.9497713239624264,
  "fwhm_x": 2.9158524931196625,
  "fwhm_y": 2.9436235598594527,
  "fwhm_z": 2.9898379189081634,
  "gcor": 0.00344166,
  "gsr_x": -0.004877507220953703,
  "gsr_y": 0.05061037465929985,
  "provenance": {
    "md5sum": "872b1c775ca2cc9731d76731462d2861",
    "settings": {
      "fd_thres": 0.2,
      "testing": false
    },
    "software": "mriqc",
    "version": "22.0.0rc1",
    "webapi_port": null,
    "webapi_url": "https://mriqc.nimh.nih.gov/api/v1"
  },
  "size_t": 150,
  "size_x": 188,
  "size_y": 188,
  "size_z": 46,
  "snr": 2.3327922944410058,
  "spacing_tr": 2.5999999046325684,
  "spacing_x": 1.0957447290420532,
  "spacing_y": 1.0957447290420532,
  "spacing_z": 1.0999994277954102,
  "summary_bg_k": 80.24554647288377,
  "summary_bg_mad": 20.805853206777446,
  "summary_bg_mean": 78.51116943359375,
  "summary_bg_median": 45.47333526611328,
  "summary_bg_n": 1127467.0,
  "summary_bg_p05": 29.873334884643555,
