{
  "aor": 0.0007542,
  "aqi": 0.012707414666666667,
  "bids_meta": {
    "AcquisitionMatrixPE": 188,
    "AcquisitionNumber": 1,
    "AcquisitionTime": "16:41:45.317500",
    "BandwidthPerPixelPhaseEncode": 19.46,
    "BaseResolution": 188,
    "CogAtlasID": "TODO",
    "ConversionSoftware": "dcm2niix",
    "ConversionSoftwareVersion": "v1.0.20180606 GCC4.8.5",
    "DelayTime": 1.2,
    "DerivedVendorReportedEchoSpacing": 0.000820013,
    "DeviceSerialNumber": "18930",
    "DwellTime": 1.9e-06,
    "EchoTime": 0.02,
    "EffectiveEchoSpacing": 0.000273338,
    "FlipAngle": 80,
    "ImageComments": "Unaliased_MB2_PE2",
    "ImageOrientationPatientDICOM": [
      0.999544,
      -0.0160305,
      -0.0255933,
      -0.0217359,
      0.206462,
      -0.978213
    ],
    "ImageType": [
      "ORIGINAL",
      "PRIMARY",
      "M",
      "MB",
      "ND",
      "MOSAIC"
    ],
    "InPlanePhaseEncodingDirectionDICOM": "COL",
    "InstitutionAddress": "Oxfordlaan_55_Maastricht_753AAF_Limburg_NL_6229_EV",
    "InstitutionName": "Scannexus",
    "InstitutionalDepartmentName": "MRI_7T",
    "MRAcquisitionType": "2D",
    "MagneticFieldStrength": 6.98,
    "Manufacturer": "Siemens",
    "ManufacturersModelName": "Investigational_Device_7T",
    "Modality": "MR",
    "MultibandAccelerationFactor": 2,
    "ParallelReductionFactorInPlane": 3,
    "PartialFourier": 0.75,
    "PatientPosition": "HFS",
    "PercentPhaseFOV": 100,
    "PhaseEncodingDirection": "j",
    "PhaseEncodingSteps": 141,
    "PhaseResolution": 1,
    "PixelBandwidth": 1400,
    "ProcedureStepDescription": "FeDem_Faruk",
    "ProtocolName": "cmrr_mbep2d_bold_AP_run11",
    "PulseSequenceDetails": "%CustomerSeq%_cmrr_mbep2d_bold",
    "ReceiveCoilName": "32Ch_Head_7T",
    "ReconMatrixPE": 188,
    "RepetitionTime": 2.6,
    "SAR": 0.106005,
    "ScanOptions": "PFP_FS",
    "ScanningSequence": "EP",
    "SequenceName": "epfid2d1_188",
    "SequenceVariant": "SK_SS",
    "SeriesDescription": "cmrr_mbep2d_bold_AP_run11",
    "SeriesNumber": 24,
    "ShimSetting": [
      51,
      -85,
      379,
      540,
      17,
      417,
      89,
      118
    ],
    "SliceThickness": 1.1,
    "SliceTiming": [
      0,
      0.7325,
      0.06,
      0.795,
      0.1225,
      0.855,
      0.1825,
      0.915,
      0.245,
      0.9775,
      0.305,
      1.0375,
      0.365,
      1.1,
      0.4275,
      1.16,
      0.4875,
      1.2225,
      0.55,
      1.2825,
      0.61,
      1.345,
      0.6725,
      0,
      0.7325,
      0.06,
      0.795,
      0.1225,
      0.855,
      0.1825,
      0.915,
      0.245,
      0.9775,
      0.305,
      1.0375,
      0.365,
      1.1,
      0.4275,
      1.16,
      0.4875,
      1.2225,
      0.55,
      1.2825,
      0.61,
      1.345,
      0.6725
    ],
    "SoftwareVersions": "syngo_MR_B17",
    "SpacingBetweenSlices": 1.1,
    "StationName": "MRC18930",
    "TaskName": "auditory",
    "TotalReadoutTime": 0.0511141,
    "TxRefAmp": 240,
    "dataset": "ds001942",
    "dcmmeta_affine": [
      [
        -1.0952450037002563,
        -0.023816999047994614,
        -0.023061836138367653,
        111.5621109008789
      ],
      [
        0.017565375193953514,
        0.2262294888496399,
        -1.0761550664901733,
        24.640995025634766
      ],
      [
        -0.028043698519468307,
        1.0718719959259033,
        0.22662104666233063,
        -108.53646850585938
      ],
      [
        0.0,
        0.0,
        0.0,
        1.0
      ]
    ],
    "dcmmeta_reorient_transform": [
      [
        0.0,
        -1.0,
        0.0,
        187.0
      ],
      [
        1.0,
        0.0,
        0.0,
        0.0
      ],
      [
        0.0,
        0.0,
        1.0,
        0.0
      ],
      [
        0.0,
        0.0,
        0.0,
        1.0
      ]
    ],
    "dcmmeta_shape": [
      188,
      188,
      46,
      150
    ],
    "dcmmeta_slice_dim": 2,
    "dcmmeta_version": 0.6,
    "global": {
      "const": {
        "AcquisitionMatrix": [
          188,
          0,
          0,
          188
        ],
        "AngioFlag": "N",
        "BitsAllocated": 16,
        "BitsStored": 12,
        "Columns": 1316,
        "EchoNumbers": 1,
        "EchoTime": 20.0,
        "EchoTrainLength": 1,
        "FlipAngle": 80.0,
        "HighBit": 11,
        "ImageOrientationPatient": [
          0.99954389901482,
          -0.0160305364317,
          -0.0255932773198,
          -0.0217359010372,
          0.20646185470948,
          -0.9782131941229
        ],
        "ImagePositionPatient": [
          -711.39369821386,
          -184.6324684504,
          712.25601335786
        ],
        "ImageType": [
          "ORIGINAL",
          "PRIMARY",
          "M",
          "MB",
          "ND",
          "MOSAIC"
        ],
        "ImagedNucleus": "1H",
        "ImagingFrequency": 297.205588,
        "InPlanePhaseEncodingDirection": "COL",
        "LargestImagePixelValue": 4095,
        "MRAcquisitionType": "2D",
        "MagneticFieldStrength": 6.98,
        "Manufacturer": "SIEMENS",
        "ManufacturerModelName": "Investigational_Device_7T",
        "Modality": "MR",
        "NumberOfAverages": 1.0,
        "NumberOfPhaseEncodingSteps": 141,
        "PercentPhaseFieldOfView": 100.0,
        "PercentSampling": 100.0,
        "PerformedProcedureStepStartTime": "145652.921000",
        "PhotometricInterpretation": "MONOCHROME2",
        "PixelBandwidth": 1400.0,
        "PixelRepresentation": 0,
        "PixelSpacing": [
          1.0957447290421,
          1.0957447290421
        ],
        "ProtocolName": "cmrr_mbep2d_bold_AP_run11",
        "RepetitionTime": 2600.0,
        "Rows": 1316,
        "SAR": 0.10600527260277,
        "SamplesPerPixel": 1,
        "ScanOptions": [
          "PFP",
          "FS"
        ],
        "ScanningSequence": "EP",
        "SequenceName": "epfid2d1_188",
        "SequenceVariant": [
          "SK",
          "SS"
        ],
        "SeriesDescription": "cmrr_mbep2d_bold_AP_run11",
        "SeriesNumber": 24,
        "SeriesTime": "164154.296000",
        "SliceLocation": -48.806395968835,
        "SliceThickness": 1.1000000238419,
        "SmallestImagePixelValue": 0,
        "SoftwareVersions": "syngo MR B17",
        "SpacingBetweenSlices": 1.0999993978041,
        "SpecificCharacterSet": "ISO_IR 100",
        "StudyID": "1",
        "StudyTime": "145652.875000",
        "TransmitCoilName": "32Ch_Head_7T",
        "VariableFlipAngleFlag": "N",
        "WindowCenterWidthExplanation": "Algo1",
        "dBdt": 0.0
      },
      "slices": {}
    },
    "modality": "bold",
    "run_id": 11,
    "session_id": "SES03",
    "subject_id": "S08",
    "task_id": "auditory",
    "time": {
      "samples": {
        "AcquisitionNumber": [
          1,
          2,
          3,
          4,
          5,
          6,
          7,
          8,
          9,
          10,
          11,
          12,
          13,
          14,
          15,
          16,
          17,
          18,
          19,
          20,
          21,
          22,
          23,
          24,
          25,
          26,
          27,
          28,
          29,
          30,
          31,
          32,
          33,
          34,
          35,
          36,
          37,
          38,
          39,
          40,
          41,
          42,
          43,
          44,
          45,
          46,
          47,
          48,
          49,
          50,
          51,
          52,
          53,
          54,
          55,
          56,
          57,
          58,
          59,
          60,
          61,
          62,
          63,
          64,
          65,
          66,
          67,
          68,
          69,
          70,
          71,
          72,
          73,
          74,
          75,
          76,
          77,
          78,
          79,
          80,
          81,
          82,
          83,
          84,
          85,
          86,
          87,
          88,
          89,
          90,
          91,
          92,
          93,
          94,
          95,
          96,
          97,
          98,
          99,
          100,
          101,
          102,
          103,
          104,
          105,
          106,
          107,
          108,
          109,
          110,
          111,
          112,
          113,
          114,
          115,
          116,
          117,
          118,
          119,
          120,
          121,
          122,
          123,
          124,
          125,
          126,
          127,
          128,
          129,
          130,
          131,
          132,
          133,
          134,
          135,
          136,
          137,
          138,
          139,
          140,
          141,
          142,
          143,
          144,
          145,
          146,
          147,
          148,
          149,
          150
        ],
        "AcquisitionTime": [
          "164145.317500",
          "164147.927500",
          "164150.537500",
          "164153.147500",
          "164155.757500",
          "164158.370000",
          "164200.980000",
          "164203.590000",
          "164206.200000",
          "164208.810000",
          "164211.422500",
          "164214.032500",
          "164216.642500",
          "164219.252500",
          "164221.862500",
          "164224.472500",
          "164227.085000",
          "164229.695000",
          "164232.305000",
          "164234.915000",
          "164237.525000",
          "164240.137500",
          "164242.747500",
          "164245.357500",
          "164247.967500",
          "164250.577500",
          "164253.187500",
          "164255.800000",
          "164258.410000",
          "164301.020000",
          "164303.630000",
          "164306.240000",
          "164308.850000",
          "164311.462500",
          "164314.072500",
          "164316.682500",
          "164319.292500",
          "164321.902500",
          "164324.515000",
          "164327.125000",
          "164329.735000",
          "164332.345000",
          "164334.955000",
          "164337.565000",
          "164340.177500",
          "164342.787500",
          "164345.397500",
          "164348.007500",
          "164350.617500",
          "164353.227500",
          "164355.840000",
          "164358.450000",
          "164401.060000",
          "164403.670000",
          "164406.280000",
          "164408.892500",
          "164411.502500",
          "164414.112500",
          "164416.722500",
          "164419.332500",
          "164421.942500",
          "164424.555000",
          "164427.165000",
          "164429.775000",
          "164432.385000",
          "164434.995000",
          "164437.605000",
          "164440.217500",
          "164442.827500",
          "164445.437500",
          "164448.047500",
          "164450.657500",
          "164453.270000",
          "164455.880000",
          "164458.490000",
          "164501.100000",
          "164503.710000",
          "164506.320000",
          "164508.932500",
          "164511.542500",
          "164514.152500",
          "164516.762500",
          "164519.372500",
          "164521.982500",
          "164524.595000",
          "164527.205000",
          "164529.815000",
          "164532.425000",
          "164535.035000",
          "164537.647500",
          "164540.257500",
          "164542.867500",
          "164545.477500",
          "164548.087500",
          "164550.697500",
          "164553.310000",
          "164555.920000",
          "164558.530000",
          "164601.140000",
          "164603.750000",
          "164606.360000",
          "164608.972500",
          "164611.582500",
          "164614.192500",
          "164616.802500",
          "164619.412500",
          "164622.025000",
          "164624.635000",
          "164627.245000",
          "164629.855000",
          "164632.465000",
          "164635.075000",
          "164637.687500",
          "164640.297500",
          "164642.907500",
          "164645.517500",
          "164648.127500",
          "164650.737500",
          "164653.350000",
          "164655.960000",
          "164658.570000",
          "164701.180000",
          "164703.790000",
          "164706.402500",
          "164709.012500",
          "164711.622500",
          "164714.232500",
          "164716.842500",
          "164719.452500",
          "164722.065000",
          "164724.675000",
          "164727.285000",
          "164729.895000",
          "164732.505000",
          "164735.115000",
          "164737.727500",
          "164740.337500",
          "164742.947500",
          "164745.557500",
          "164748.167500",
          "164750.780000",
          "164753.390000",
          "164756.000000",
          "164758.610000",
          "164801.220000",
          "164803.830000",
          "164806.442500",
          "164809.052500",
          "164811.662500",
          "164814.272500"
        ],
        "ContentTime": [
          "164154.296000",
          "164154.312000",
          "164154.796000",
          "164157.296000",
          "164159.796000",
          "164202.796000",
          "164205.296000",
          "164207.796000",
          "164210.296000",
          "164212.796000",
          "164215.296000",
          "164218.296000",
          "164220.796000",
          "164223.296000",
          "164225.796000",
          "164228.296000",
          "164231.296000",
          "164233.796000",
          "164236.296000",
          "164238.796000",
          "164241.796000",
          "164244.296000",
          "164246.796000",
          "164249.296000",
          "164251.796000",
          "164254.296000",
          "164257.296000",
          "164259.796000",
          "164302.296000",
          "164304.796000",
          "164307.796000",
          "164310.296000",
          "164312.796000",
          "164315.296000",
          "164317.796000",
          "164320.796000",
          "164323.296000",
          "164325.796000",
          "164328.296000",
          "164330.796000",
          "164333.796000",
          "164336.296000",
          "164338.796000",
          "164341.296000",
          "164343.796000",
          "164346.796000",
          "164349.296000",
          "164351.796000",
          "164354.296000",
          "164356.796000",
          "164359.796000",
          "164402.296000",
          "164404.796000",
          "164407.296000",
          "164409.796000",
          "164412.796000",
          "164415.296000",
          "164417.796000",
          "164420.296000",
          "164422.796000",
          "164425.796000",
          "164428.296000",
          "164430.796000",
          "164433.296000",
          "164435.796000",
          "164438.296000",
          "164441.296000",
          "164443.796000",
          "164446.296000",
          "164448.796000",
          "164451.296000",
          "164454.296000",
          "164456.796000",
          "164459.296000",
          "164501.796000",
          "164504.796000",
          "164507.296000",
          "164509.796000",
          "164512.296000",
          "164514.796000",
          "164517.296000",
          "164520.296000",
          "164522.796000",
          "164525.296000",
          "164527.796000",
          "164530.296000",
          "164533.296000",
          "164535.796000",
          "164538.296000",
          "164540.796000",
          "164543.796000",
          "164546.296000",
          "164548.796000",
          "164551.296000",
          "164553.796000",
          "164556.796000",
          "164559.296000",
          "164601.796000",
          "164604.296000",
          "164606.796000",
          "164609.796000",
          "164612.296000",
          "164614.796000",
          "164617.296000",
          "164619.796000",
          "164622.796000",
          "164625.296000",
          "164627.796000",
          "164630.296000",
          "164632.796000",
          "164635.796000",
          "164638.296000",
          "164640.796000",
          "164643.296000",
          "164645.796000",
          "164648.796000",
          "164651.296000",
          "164653.796000",
          "164656.296000",
          "164658.796000",
          "164701.796000",
          "164704.296000",
          "164706.796000",
          "164709.296000",
          "164711.796000",
          "164714.296000",
          "164717.296000",
          "164719.796000",
          "164722.296000",
          "164724.796000",
          "164727.296000",
          "164730.296000",
          "164732.796000",
          "164735.296000",
          "164737.796000",
          "164740.796000",
          "164743.296000",
          "164745.796000",
          "164748.296000",
          "164750.796000",
          "164753.296000",
          "164756.296000",
          "164758.796000",
          "164801.296000",
          "164803.796000",
          "164806.796000",
          "164809.296000",
          "164811.796000",
          "164814.296000",
          "164821.656000"
        ],
        "InstanceCreationTime": [
          "164154.296000",
          "164154.312000",
          "164154.796000",
          "164157.296000",
          "164159.796000",
          "164202.796000",
          "164205.296000",
          "164207.796000",
          "164210.296000",
          "164212.796000",
          "164215.296000",
          "164218.296000",
          "164220.796000",
          "164223.296000",
          "164225.796000",
          "164228.296000",
          "164231.296000",
          "164233.796000",
          "164236.296000",
          "164238.796000",
          "164241.796000",
          "164244.296000",
          "164246.796000",
          "164249.296000",
          "164251.796000",
          "164254.296000",
          "164257.296000",
          "164259.796000",
          "164302.296000",
          "164304.796000",
          "164307.796000",
          "164310.296000",
          "164312.796000",
          "164315.296000",
          "164317.796000",
          "164320.796000",
          "164323.296000",
          "164325.796000",
          "164328.296000",
          "164330.796000",
          "164333.796000",
          "164336.296000",
          "164338.796000",
          "164341.296000",
          "164343.796000",
          "164346.796000",
          "164349.296000",
          "164351.796000",
          "164354.296000",
          "164356.796000",
          "164359.796000",
          "164402.296000",
          "164404.796000",
          "164407.296000",
          "164409.796000",
          "164412.796000",
          "164415.296000",
          "164417.796000",
          "164420.296000",
          "164422.796000",
          "164425.796000",
          "164428.296000",
          "164430.796000",
          "164433.296000",
          "164435.796000",
          "164438.296000",
          "164441.296000",
          "164443.796000",
          "164446.296000",
          "164448.796000",
          "164451.296000",
          "164454.296000",
          "164456.796000",
          "164459.296000",
          "164501.796000",
          "164504.796000",
          "164507.296000",
          "164509.796000",
          "164512.296000",
          "164514.796000",
          "164517.296000",
          "164520.296000",
          "164522.796000",
          "164525.296000",
          "164527.796000",
          "164530.296000",
          "164533.296000",
          "164535.796000",
          "164538.296000",
          "164540.796000",
          "164543.796000",
          "164546.296000",
          "164548.796000",
          "164551.296000",
          "164553.796000",
          "164556.796000",
          "164559.296000",
          "164601.796000",
          "164604.296000",
          "164606.796000",
          "164609.796000",
          "164612.296000",
          "164614.796000",
          "164617.296000",
          "164619.796000",
          "164622.796000",
          "164625.296000",
          "164627.796000",
          "164630.296000",
          "164632.796000",
          "164635.796000",
          "164638.296000",
          "164640.796000",
          "164643.296000",
          "164645.796000",
          "164648.796000",
          "164651.296000",
          "164653.796000",
          "164656.296000",
          "164658.796000",
          "164701.796000",
          "164704.296000",
          "164706.796000",
          "164709.296000",
          "164711.796000",
          "164714.296000",
          "164717.296000",
          "164719.796000",
          "164722.296000",
          "164724.796000",
          "164727.296000",
          "164730.296000",
          "164732.796000",
          "164735.296000",
          "164737.796000",
          "164740.796000",
          "164743.296000",
          "164745.796000",
          "164748.296000",
          "164750.796000",
          "164753.296000",
          "164756.296000",
          "164758.796000",
          "164801.296000",
          "164803.796000",
          "164806.796000",
          "164809.296000",
          "164811.796000",
          "164814.296000",
          "164821.656000"
        ],
        "InstanceNumber": [
          1,
          2,
          3,
          4,
          5,
          6,
          7,
          8,
          9,
          10,
          11,
          12,
          13,
          14,
          15,
          16,
          17,
          18,
          19,
          20,
          21,
          22,
          23,
          24,
          25,
          26,
          27,
          28,
          29,
          30,
          31,
          32,
          33,
          34,
          35,
          36,
          37,
          38,
          39,
          40,
          41,
          42,
          43,
          44,
          45,
          46,
          47,
          48,
          49,
          50,
          51,
          52,
          53,
          54,
          55,
          56,
          57,
          58,
          59,
          60,
          61,
          62,
          63,
          64,
          65,
          66,
          67,
          68,
          69,
          70,
          71,
          72,
          73,
          74,
          75,
          76,
          77,
          78,
          79,
          80,
          81,
          82,
          83,
          84,
          85,
          86,
          87,
          88,
          89,
          90,
          91,
          92,
          93,
          94,
          95,
          96,
          97,
          98,
          99,
          100,
          101,
          102,
          103,
          104,
          105,
          106,
          107,
          108,
          109,
          110,
          111,
          112,
          113,
          114,
          115,
          116,
          117,
          118,
          119,
          120,
          121,
          122,
          123,
          124,
          125,
          126,
          127,
          128,
          129,
          130,
          131,
          132,
          133,
          134,
          135,
          136,
          137,
          138,
          139,
          140,
          141,
          142,
          143,
          144,
          145,
          146,
          147,
          148,
          149,
          150
        ],
        "WindowCenter": [
          826.0,
          825.0,
          826.0,
          825.0,
          824.0,
          825.0,
          826.0,
          825.0,
          825.0,
          825.0,
          825.0,
          825.0,
          825.0,
          826.0,
          826.0,
          826.0,
          826.0,
          826.0,
          826.0,
          827.0,
          826.0,
          825.0,
          825.0,
          825.0,
          825.0,
          827.0,
          826.0,
          825.0,
          825.0,
          826.0,
          826.0,
          825.0,
          826.0,
          826.0,
          826.0,
          826.0,
          825.0,
          824.0,
          825.0,
          825.0,
          825.0,
          824.0,
          825.0,
          825.0,
          824.0,
          825.0,
          825.0,
          826.0,
          826.0,
          826.0,
          825.0,
          824.0,
          825.0,
          825.0,
          826.0,
          826.0,
          826.0,
          824.0,
          825.0,
          826.0,
          826.0,
          825.0,
          826.0,
          826.0,
          825.0,
          825.0,
          825.0,
          825.0,
          825.0,
          826.0,
          827.0,
          826.0,
          825.0,
          827.0,
          827.0,
          826.0,
          825.0,
          826.0,
          825.0,
          826.0,
          826.0,
          825.0,
          826.0,
          827.0,
          826.0,
          826.0,
          825.0,
          826.0,
          827.0,
          826.0,
          825.0,
          826.0,
          826.0,
          827.0,
          827.0,
          828.0,
          828.0,
          827.0,
          826.0,
          826.0,
          827.0,
          827.0,
          825.0,
          825.0,
          826.0,
          826.0,
          826.0,
          825.0,
          826.0,
          826.0,
          826.0,
          825.0,
          825.0,
          825.0,
          825.0,
          824.0,
          826.0,
          827.0,
          825.0,
          825.0,
          825.0,
          825.0,
          826.0,
          826.0,
          827.0,
          827.0,
          827.0,
          827.0,
          827.0,
          827.0,
          827.0,
          826.0,
          827.0,
          827.0,
          829.0,
          828.0,
          826.0,
          825.0,
          826.0,
          827.0,
          827.0,
          826.0,
          826.0,
          825.0,
          825.0,
          825.0,
          825.0,
          826.0,
          827.0,
          828.0
        ],
        "WindowWidth": [
          1917.0,
          1917.0,
          1917.0,
          1915.0,
          1913.0,
          1915.0,
          1917.0,
          1919.0,
          1917.0,
          1917.0,
          1914.0,
          1915.0,
          1917.0,
          1920.0,
          1920.0,
          1919.0,
          1920.0,
          1919.0,
          1918.0,
          1922.0,
          1919.0,
          1917.0,
          1918.0,
          1915.0,
          1917.0,
          1924.0,
          1921.0,
          1917.0,
          1916.0,
          1920.0,
          1919.0,
          1917.0,
          1922.0,
          1922.0,
          1922.0,
          1919.0,
          1916.0,
          1913.0,
          1916.0,
          1916.0,
          1916.0,
          1914.0,
          1916.0,
          1915.0,
          1915.0,
          1915.0,
          1915.0,
          1920.0,
          1919.0,
          1919.0,
          1915.0,
          1915.0,
          1915.0,
          1917.0,
          1921.0,
          1921.0,
          1919.0,
          1914.0,
          1918.0,
          1920.0,
          1921.0,
          1918.0,
          1921.0,
          1920.0,
          1917.0,
          1916.0,
          1917.0,
          1918.0,
          1917.0,
          1923.0,
          1926.0,
          1920.0,
          1916.0,
          1928.0,
          1927.0,
          1919.0,
          1917.0,
          1920.0,
          1917.0,
          1919.0,
          1919.0,
          1914.0,
          1921.0,
          1926.0,
          1920.0,
          1920.0,
          1917.0,
          1919.0,
          1923.0,
          1920.0,
          1918.0,
          1918.0,
          1919.0,
          1924.0,
          1926.0,
          1927.0,
          1926.0,
          1926.0,
          1922.0,
          1920.0,
          1925.0,
          1923.0,
          1917.0,
          1916.0,
          1919.0,
          1919.0,
          1919.0,
          1917.0,
          1921.0,
          1921.0,
          1918.0,
          1915.0,
          1917.0,
          1914.0,
          1914.0,
          1914.0,
          1922.0,
          1923.0,
          1918.0,
          1917.0,
          1917.0,
          1917.0,
          1918.0,
          1922.0,
          1924.0,
          1923.0,
          1926.0,
          1927.0,
          1926.0,
          1925.0,
          1922.0,
          1921.0,
          1922.0,
          1928.0,
          1932.0,
          1927.0,
          1921.0,
          1917.0,
          1918.0,
          1923.0,
          1922.0,
          1921.0,
          1919.0,
          1917.0,
          1917.0,
          1916.0,
          1917.0,
          1921.0,
          1924.0,
          1928.0
        ]
      },
      "slices": {}
    }
  },
  "dummy_trs": 0,
  "dvars_nstd": 76.29369840671139,
  "dvars_std": 1.0954179670469801,
  "dvars_vstd": 1.021082766979866,
  "efc": 0.5333320147570171,
  "fber": 415.4655456542969,
  "fd_mean": 0.06875293347079717,
  "fd_num": 0,
  "fd_perc": 0.0,
  "fwhm_avg": 2.9570789787465492,
  "fwhm_x": 2.929468803200427,
  "fwhm_y": 2.95239385073587,
  "fwhm_z": 2.9893742823033502,
  "gcor": 0.00262297,
  "gsr_x": -0.004030466079711914,
  "gsr_y": 0.05059098079800606,
  "provenance": {
    "md5sum": "0ad35cfa16cf117a44287757a54d6e74",
    "settings": {
      "fd_thres": 0.2,
      "testing": false
    },
    "software": "mriqc",
    "version": "22.0.6",
    "webapi_port": null,
    "webapi_url": "https://mriqc.nimh.nih.gov/api/v1"
  },
  "size_t": 150,
  "size_x": 188,
  "size_y": 188,
  "size_z": 46,
  "snr": 2.303950383927917,
  "spacing_tr": 2.5999999046325684,
  "spacing_x": 1.0957447290420532,
  "spacing_y": 1.0957447290420532,
  "spacing_z": 1.0999994277954102,
  "summary_bg_k": 81.69267706973152,
  "summary_bg_mad": 20.973874935325394,
  "summary_bg_mean": 80.3329086303711,
  "summary_bg_median": 45.90666961669922,
  "summary_bg_n": 1127444.0,
  "summary_bg_p05": 30.079999923706055,
  "summary_bg_p95": 227.97234268188384,
