{
  "aor": 0.0006184,
  "aqi": 0.013839140666666664,
  "bids_meta": {
    "AcquisitionMatrixPE": 188,
    "AcquisitionNumber": 1,
    "AcquisitionTime": "16:49:24.142500",
    "BandwidthPerPixelPhaseEncode": 19.46,
    "BaseResolution": 188,
    "CogAtlasID": "TODO",
    "ConversionSoftware": "dcm2niix",
    "ConversionSoftwareVersion": "v1.0.20180606 GCC4.8.5",
    "DelayTime": 1.2,
    "DerivedVendorReportedEchoSpacing": 0.000820013,
    "DeviceSerialNumber": "18930",
    "DwellTime": 1.9e-06,
    "EchoTime": 0.02,
    "EffectiveEchoSpacing": 0.000273338,
    "FlipAngle": 80,
    "ImageComments": "Unaliased_MB2_PE2",
    "ImageOrientationPatientDICOM": [
      0.999544,
      -0.0160305,
      -0.0255933,
      -0.0217359,
      0.206462,
      -0.978213
    ],
    "ImageType": [
      "ORIGINAL",
      "PRIMARY",
      "M",
      "MB",
      "ND",
      "MOSAIC"
    ],
    "InPlanePhaseEncodingDirectionDICOM": "COL",
    "InstitutionAddress": "Oxfordlaan_55_Maastricht_753AAF_Limburg_NL_6229_EV",
    "InstitutionName": "Scannexus",
    "InstitutionalDepartmentName": "MRI_7T",
    "MRAcquisitionType": "2D",
    "MagneticFieldStrength": 6.98,
    "Manufacturer": "Siemens",
    "ManufacturersModelName": "Investigational_Device_7T",
    "Modality": "MR",
    "MultibandAccelerationFactor": 2,
    "ParallelReductionFactorInPlane": 3,
    "PartialFourier": 0.75,
    "PatientPosition": "HFS",
    "PercentPhaseFOV": 100,
    "PhaseEncodingDirection": "j",
    "PhaseEncodingSteps": 141,
    "PhaseResolution": 1,
    "PixelBandwidth": 1400,
    "ProcedureStepDescription": "FeDem_Faruk",
    "ProtocolName": "cmrr_mbep2d_bold_AP_run12",
    "PulseSequenceDetails": "%CustomerSeq%_cmrr_mbep2d_bold",
    "ReceiveCoilName": "32Ch_Head_7T",
    "ReconMatrixPE": 188,
    "RepetitionTime": 2.6,
    "SAR": 0.106443,
    "ScanOptions": "PFP_FS",
    "ScanningSequence": "EP",
    "SequenceName": "epfid2d1_188",
    "SequenceVariant": "SK_SS",
    "SeriesDescription": "cmrr_mbep2d_bold_AP_run12",
    "SeriesNumber": 25,
    "ShimSetting": [
      51,
      -85,
      379,
      540,
      17,
      417,
      89,
      118
    ],
    "SliceThickness": 1.1,
    "SliceTiming": [
      0,
      0.7325,
      0.06,
      0.7925,
      0.12,
      0.855,
      0.1825,
      0.915,
      0.2425,
      0.9775,
      0.305,
      1.0375,
      0.365,
      1.1,
      0.4275,
      1.16,
      0.4875,
      1.22,
      0.55,
      1.2825,
      0.61,
      1.3425,
      0.67,
      0,
      0.7325,
      0.06,
      0.7925,
      0.12,
      0.855,
      0.1825,
      0.915,
      0.2425,
      0.9775,
      0.305,
      1.0375,
      0.365,
      1.1,
      0.4275,
      1.16,
      0.4875,
      1.22,
      0.55,
      1.2825,
      0.61,
      1.3425,
      0.67
    ],
    "SoftwareVersions": "syngo_MR_B17",
    "SpacingBetweenSlices": 1.1,
    "StationName": "MRC18930",
    "TaskName": "auditory",
    "TotalReadoutTime": 0.0511141,
    "TxRefAmp": 240,
    "dataset": "ds001942",
    "dcmmeta_affine": [
      [
        -1.0952450037002563,
        -0.023816999047994614,
        -0.023061836138367653,
        111.5621109008789
      ],
      [
        0.017565375193953514,
        0.2262294888496399,
        -1.0761550664901733,
        24.640995025634766
      ],
      [
        -0.028043698519468307,
        1.0718719959259033,
        0.22662104666233063,
        -108.53646850585938
      ],
      [
        0.0,
        0.0,
        0.0,
        1.0
      ]
    ],
    "dcmmeta_reorient_transform": [
      [
        0.0,
        -1.0,
        0.0,
        187.0
      ],
      [
        1.0,
        0.0,
        0.0,
        0.0
      ],
      [
        0.0,
        0.0,
        1.0,
        0.0
      ],
      [
        0.0,
        0.0,
        0.0,
        1.0
      ]
    ],
    "dcmmeta_shape": [
      188,
      188,
      46,
      150
    ],
    "dcmmeta_slice_dim": 2,
    "dcmmeta_version": 0.6,
    "global": {
      "const": {
        "AcquisitionMatrix": [
          188,
          0,
          0,
          188
        ],
        "AngioFlag": "N",
        "BitsAllocated": 16,
        "BitsStored": 12,
        "Columns": 1316,
        "EchoNumbers": 1,
        "EchoTime": 20.0,
        "EchoTrainLength": 1,
        "FlipAngle": 80.0,
        "HighBit": 11,
        "ImageOrientationPatient": [
          0.99954389901482,
          -0.0160305364317,
          -0.0255932773198,
          -0.0217359010372,
          0.20646185470948,
          -0.9782131941229
        ],
        "ImagePositionPatient": [
          -711.39369821386,
          -184.6324684504,
          712.25601335786
        ],
        "ImageType": [
          "ORIGINAL",
          "PRIMARY",
          "M",
          "MB",
          "ND",
          "MOSAIC"
        ],
        "ImagedNucleus": "1H",
        "ImagingFrequency": 297.205586,
        "InPlanePhaseEncodingDirection": "COL",
        "LargestImagePixelValue": 4095,
        "MRAcquisitionType": "2D",
        "MagneticFieldStrength": 6.98,
        "Manufacturer": "SIEMENS",
        "ManufacturerModelName": "Investigational_Device_7T",
        "Modality": "MR",
        "NumberOfAverages": 1.0,
        "NumberOfPhaseEncodingSteps": 141,
        "PercentPhaseFieldOfView": 100.0,
        "PercentSampling": 100.0,
        "PerformedProcedureStepStartTime": "145652.921000",
        "PhotometricInterpretation": "MONOCHROME2",
        "PixelBandwidth": 1400.0,
        "PixelRepresentation": 0,
        "PixelSpacing": [
          1.0957447290421,
          1.0957447290421
        ],
        "ProtocolName": "cmrr_mbep2d_bold_AP_run12",
        "RepetitionTime": 2600.0,
        "Rows": 1316,
        "SAR": 0.10644255551174,
        "SamplesPerPixel": 1,
        "ScanOptions": [
          "PFP",
          "FS"
        ],
        "ScanningSequence": "EP",
        "SequenceName": "epfid2d1_188",
        "SequenceVariant": [
          "SK",
          "SS"
        ],
        "SeriesDescription": "cmrr_mbep2d_bold_AP_run12",
        "SeriesNumber": 25,
        "SeriesTime": "164933.296000",
        "SliceLocation": -48.806395968835,
        "SliceThickness": 1.1000000238419,
        "SmallestImagePixelValue": 0,
        "SoftwareVersions": "syngo MR B17",
        "SpacingBetweenSlices": 1.0999993978041,
        "SpecificCharacterSet": "ISO_IR 100",
        "StudyID": "1",
        "StudyTime": "145652.875000",
        "TransmitCoilName": "32Ch_Head_7T",
        "VariableFlipAngleFlag": "N",
        "WindowCenterWidthExplanation": "Algo1",
        "dBdt": 0.0
      },
      "slices": {}
    },
    "modality": "bold",
    "run_id": 12,
    "session_id": "SES03",
    "subject_id": "S08",
    "task_id": "auditory",
    "time": {
      "samples": {
        "AcquisitionNumber": [
          1,
          2,
          3,
          4,
          5,
          6,
          7,
          8,
          9,
          10,
          11,
          12,
          13,
          14,
          15,
          16,
          17,
          18,
          19,
          20,
          21,
          22,
          23,
          24,
          25,
          26,
          27,
          28,
          29,
          30,
          31,
          32,
          33,
          34,
          35,
          36,
          37,
          38,
          39,
          40,
          41,
          42,
          43,
          44,
          45,
          46,
          47,
          48,
          49,
          50,
          51,
          52,
          53,
          54,
          55,
          56,
          57,
          58,
          59,
          60,
          61,
          62,
          63,
          64,
          65,
          66,
          67,
          68,
          69,
          70,
          71,
          72,
          73,
          74,
          75,
          76,
          77,
          78,
          79,
          80,
          81,
          82,
          83,
          84,
          85,
          86,
          87,
          88,
          89,
          90,
          91,
          92,
          93,
          94,
          95,
          96,
          97,
          98,
          99,
          100,
          101,
          102,
          103,
          104,
          105,
          106,
          107,
          108,
          109,
          110,
          111,
          112,
          113,
          114,
          115,
          116,
          117,
          118,
          119,
          120,
          121,
          122,
          123,
          124,
          125,
          126,
          127,
          128,
          129,
          130,
          131,
          132,
          133,
          134,
          135,
          136,
          137,
          138,
          139,
          140,
          141,
          142,
          143,
          144,
          145,
          146,
          147,
          148,
          149,
          150
        ],
        "AcquisitionTime": [
          "164924.142500",
          "164926.752500",
          "164929.362500",
          "164931.972500",
          "164934.582500",
          "164937.192500",
          "164939.805000",
          "164942.415000",
          "164945.025000",
          "164947.635000",
          "164950.245000",
          "164952.857500",
          "164955.467500",
          "164958.077500",
          "165000.687500",
          "165003.297500",
          "165005.907500",
          "165008.520000",
          "165011.130000",
          "165013.740000",
          "165016.350000",
          "165018.960000",
          "165021.570000",
          "165024.182500",
          "165026.792500",
          "165029.402500",
          "165032.012500",
          "165034.622500",
          "165037.235000",
          "165039.845000",
          "165042.455000",
          "165045.065000",
          "165047.675000",
          "165050.285000",
          "165052.897500",
          "165055.507500",
          "165058.117500",
          "165100.727500",
          "165103.337500",
          "165105.947500",
          "165108.560000",
          "165111.170000",
          "165113.780000",
          "165116.390000",
          "165119.000000",
          "165121.612500",
          "165124.222500",
          "165126.832500",
          "165129.442500",
          "165132.052500",
          "165134.662500",
          "165137.275000",
          "165139.885000",
          "165142.495000",
          "165145.105000",
          "165147.715000",
          "165150.325000",
          "165152.937500",
          "165155.547500",
          "165158.157500",
          "165200.767500",
          "165203.377500",
          "165205.990000",
          "165208.600000",
          "165211.210000",
          "165213.820000",
          "165216.430000",
          "165219.040000",
          "165221.652500",
          "165224.262500",
          "165226.872500",
          "165229.482500",
          "165232.092500",
          "165234.702500",
          "165237.315000",
          "165239.925000",
          "165242.535000",
          "165245.145000",
          "165247.755000",
          "165250.367500",
          "165252.977500",
          "165255.587500",
          "165258.197500",
          "165300.807500",
          "165303.417500",
          "165306.030000",
          "165308.640000",
          "165311.250000",
          "165313.860000",
          "165316.470000",
          "165319.080000",
          "165321.692500",
          "165324.302500",
          "165326.912500",
          "165329.522500",
          "165332.132500",
          "165334.745000",
          "165337.355000",
          "165339.965000",
          "165342.575000",
          "165345.185000",
          "165347.795000",
          "165350.407500",
          "165353.017500",
          "165355.627500",
          "165358.237500",
          "165400.847500",
          "165403.457500",
          "165406.070000",
          "165408.680000",
          "165411.290000",
          "165413.900000",
          "165416.510000",
          "165419.122500",
          "165421.732500",
          "165424.342500",
          "165426.952500",
          "165429.562500",
          "165432.172500",
          "165434.785000",
          "165437.395000",
          "165440.005000",
          "165442.615000",
          "165445.225000",
          "165447.835000",
          "165450.447500",
          "165453.057500",
          "165455.667500",
          "165458.277500",
          "165500.887500",
          "165503.500000",
          "165506.110000",
          "165508.720000",
          "165511.330000",
          "165513.940000",
          "165516.550000",
          "165519.162500",
          "165521.772500",
          "165524.382500",
          "165526.992500",
          "165529.602500",
          "165532.212500",
          "165534.825000",
          "165537.435000",
          "165540.045000",
          "165542.655000",
          "165545.265000",
          "165547.877500",
          "165550.487500",
          "165553.097500"
        ],
        "ContentTime": [
          "164933.312000",
          "164933.312000",
          "164933.796000",
          "164936.296000",
          "164938.796000",
          "164941.296000",
          "164944.296000",
          "164946.796000",
          "164949.296000",
          "164951.796000",
          "164954.296000",
          "164957.296000",
          "164959.796000",
          "165002.296000",
          "165004.796000",
          "165007.296000",
          "165010.296000",
          "165012.796000",
          "165015.296000",
          "165017.796000",
          "165020.296000",
          "165023.296000",
          "165025.796000",
          "165028.296000",
          "165030.796000",
          "165033.296000",
          "165036.296000",
          "165038.796000",
          "165041.296000",
          "165043.796000",
          "165046.296000",
          "165049.296000",
          "165051.796000",
          "165054.296000",
          "165056.796000",
          "165059.296000",
          "165102.296000",
          "165104.796000",
          "165107.296000",
          "165109.796000",
          "165112.296000",
          "165115.296000",
          "165117.796000",
          "165120.296000",
          "165122.796000",
          "165125.296000",
          "165128.296000",
          "165130.796000",
          "165133.296000",
          "165135.796000",
          "165138.296000",
          "165141.296000",
          "165143.796000",
          "165146.296000",
          "165148.796000",
          "165151.296000",
          "165154.296000",
          "165156.796000",
          "165159.296000",
          "165201.796000",
          "165204.296000",
          "165207.296000",
          "165209.796000",
          "165212.296000",
          "165214.796000",
          "165217.296000",
          "165220.296000",
          "165222.796000",
          "165225.296000",
          "165227.796000",
          "165230.296000",
          "165233.296000",
          "165235.796000",
          "165238.296000",
          "165240.796000",
          "165243.296000",
          "165246.296000",
          "165248.796000",
          "165251.296000",
          "165253.796000",
          "165256.296000",
          "165259.296000",
          "165301.796000",
          "165304.296000",
          "165306.796000",
          "165309.296000",
          "165312.296000",
          "165314.796000",
          "165317.296000",
          "165319.796000",
          "165322.296000",
          "165325.296000",
          "165327.796000",
          "165330.296000",
          "165332.796000",
          "165335.296000",
          "165338.296000",
          "165340.796000",
          "165343.296000",
          "165345.796000",
          "165348.296000",
          "165351.296000",
          "165353.796000",
          "165356.296000",
          "165358.796000",
          "165401.296000",
          "165404.296000",
          "165406.796000",
          "165409.296000",
          "165411.796000",
          "165414.296000",
          "165417.296000",
          "165419.796000",
          "165422.296000",
          "165424.796000",
          "165427.296000",
          "165430.296000",
          "165432.796000",
          "165435.296000",
          "165437.796000",
          "165440.812000",
          "165443.296000",
          "165445.796000",
          "165448.296000",
          "165450.796000",
          "165453.296000",
          "165456.296000",
          "165458.796000",
          "165501.296000",
          "165503.796000",
          "165506.296000",
          "165509.296000",
          "165511.796000",
          "165514.296000",
          "165516.796000",
          "165519.296000",
          "165522.296000",
          "165524.796000",
          "165527.296000",
          "165529.796000",
          "165532.296000",
          "165535.296000",
          "165537.796000",
          "165540.296000",
          "165542.796000",
          "165545.296000",
          "165548.296000",
          "165550.796000",
          "165553.296000",
          "165600.656000"
        ],
        "InstanceCreationTime": [
          "164933.312000",
          "164933.312000",
          "164933.796000",
          "164936.296000",
          "164938.796000",
          "164941.296000",
          "164944.296000",
          "164946.796000",
          "164949.296000",
          "164951.796000",
          "164954.296000",
          "164957.296000",
          "164959.796000",
          "165002.296000",
          "165004.796000",
          "165007.296000",
          "165010.296000",
          "165012.796000",
          "165015.296000",
          "165017.796000",
          "165020.296000",
          "165023.296000",
          "165025.796000",
          "165028.296000",
          "165030.796000",
          "165033.296000",
          "165036.296000",
          "165038.796000",
          "165041.296000",
          "165043.796000",
          "165046.296000",
          "165049.296000",
          "165051.796000",
          "165054.296000",
          "165056.796000",
          "165059.296000",
          "165102.296000",
          "165104.796000",
          "165107.296000",
          "165109.796000",
          "165112.296000",
          "165115.296000",
          "165117.796000",
          "165120.296000",
          "165122.796000",
          "165125.296000",
          "165128.296000",
          "165130.796000",
          "165133.296000",
          "165135.796000",
          "165138.296000",
          "165141.296000",
          "165143.796000",
          "165146.296000",
          "165148.796000",
          "165151.296000",
          "165154.296000",
          "165156.796000",
          "165159.296000",
          "165201.796000",
          "165204.296000",
          "165207.296000",
          "165209.796000",
          "165212.296000",
          "165214.796000",
          "165217.296000",
          "165220.296000",
          "165222.796000",
          "165225.296000",
          "165227.796000",
          "165230.296000",
          "165233.296000",
          "165235.796000",
          "165238.296000",
          "165240.796000",
          "165243.296000",
          "165246.296000",
          "165248.796000",
          "165251.296000",
          "165253.796000",
          "165256.296000",
          "165259.296000",
          "165301.796000",
          "165304.296000",
          "165306.796000",
          "165309.296000",
          "165312.296000",
          "165314.796000",
          "165317.296000",
          "165319.796000",
          "165322.296000",
          "165325.296000",
          "165327.796000",
          "165330.296000",
          "165332.796000",
          "165335.296000",
          "165338.296000",
          "165340.796000",
          "165343.296000",
          "165345.796000",
          "165348.296000",
          "165351.296000",
          "165353.796000",
          "165356.296000",
          "165358.796000",
          "165401.296000",
          "165404.296000",
          "165406.796000",
          "165409.296000",
          "165411.796000",
          "165414.296000",
          "165417.296000",
          "165419.796000",
          "165422.296000",
          "165424.796000",
          "165427.296000",
          "165430.296000",
          "165432.796000",
          "165435.296000",
          "165437.796000",
          "165440.812000",
          "165443.296000",
          "165445.796000",
          "165448.296000",
          "165450.796000",
          "165453.296000",
          "165456.296000",
          "165458.796000",
          "165501.296000",
          "165503.796000",
          "165506.296000",
          "165509.296000",
          "165511.796000",
          "165514.296000",
          "165516.796000",
          "165519.296000",
          "165522.296000",
          "165524.796000",
          "165527.296000",
          "165529.796000",
          "165532.296000",
          "165535.296000",
          "165537.796000",
          "165540.296000",
          "165542.796000",
          "165545.296000",
          "165548.296000",
          "165550.796000",
          "165553.296000",
          "165600.656000"
        ],
        "InstanceNumber": [
          1,
          2,
          3,
          4,
          5,
          6,
          7,
          8,
          9,
          10,
          11,
          12,
          13,
          14,
          15,
          16,
          17,
          18,
          19,
          20,
          21,
          22,
          23,
          24,
          25,
          26,
          27,
          28,
          29,
          30,
          31,
          32,
          33,
          34,
          35,
          36,
          37,
          38,
          39,
          40,
          41,
          42,
          43,
          44,
          45,
          46,
          47,
          48,
          49,
          50,
          51,
          52,
          53,
          54,
          55,
          56,
          57,
          58,
          59,
          60,
          61,
          62,
          63,
          64,
          65,
          66,
          67,
          68,
          69,
          70,
          71,
          72,
          73,
          74,
          75,
          76,
          77,
          78,
          79,
          80,
          81,
          82,
          83,
          84,
          85,
          86,
          87,
          88,
          89,
          90,
          91,
          92,
          93,
          94,
          95,
          96,
          97,
          98,
          99,
          100,
          101,
          102,
          103,
          104,
          105,
          106,
          107,
          108,
          109,
          110,
          111,
          112,
          113,
          114,
          115,
          116,
          117,
          118,
          119,
          120,
          121,
          122,
          123,
          124,
          125,
          126,
          127,
          128,
          129,
          130,
          131,
          132,
          133,
          134,
          135,
          136,
          137,
          138,
          139,
          140,
          141,
          142,
          143,
          144,
          145,
          146,
          147,
          148,
          149,
          150
        ],
        "WindowCenter": [
          827.0,
          826.0,
          826.0,
          825.0,
          826.0,
          826.0,
          826.0,
          825.0,
          825.0,
          827.0,
          825.0,
          825.0,
          825.0,
          825.0,
          825.0,
          825.0,
          825.0,
          825.0,
          825.0,
          825.0,
          825.0,
          825.0,
          825.0,
          825.0,
          825.0,
          825.0,
          825.0,
          824.0,
          825.0,
          824.0,
          823.0,
          824.0,
          823.0,
          824.0,
          824.0,
          825.0,
          825.0,
          825.0,
          825.0,
          825.0,
          827.0,
          826.0,
          824.0,
          824.0,
          825.0,
          825.0,
          825.0,
          826.0,
          826.0,
          825.0,
          826.0,
          826.0,
          827.0,
          827.0,
          825.0,
          825.0,
          825.0,
          825.0,
          825.0,
          826.0,
          826.0,
          826.0,
          825.0,
          825.0,
          826.0,
          826.0,
          826.0,
          825.0,
          826.0,
          826.0,
          825.0,
          826.0,
          827.0,
          826.0,
          824.0,
          825.0,
          827.0,
          826.0,
          827.0,
          825.0,
          825.0,
          825.0,
          825.0,
          826.0,
          825.0,
          826.0,
          826.0,
          826.0,
          826.0,
          825.0,
          824.0,
          825.0,
          826.0,
          826.0,
          826.0,
          826.0,
          826.0,
          825.0,
          825.0,
          826.0,
          827.0,
          826.0,
          826.0,
          825.0,
          825.0,
          825.0,
          826.0,
          826.0,
          826.0,
          825.0,
          825.0,
          824.0,
          825.0,
          826.0,
          826.0,
          825.0,
          825.0,
          825.0,
          826.0,
          825.0,
          825.0,
          825.0,
          826.0,
          827.0,
          826.0,
          827.0,
          827.0,
          828.0,
          827.0,
          826.0,
          826.0,
          826.0,
          826.0,
          826.0,
          827.0,
          827.0,
          826.0,
          827.0,
          827.0,
          827.0,
          827.0,
          827.0,
          826.0,
          826.0,
          827.0,
          827.0,
          826.0,
          827.0,
          827.0,
          826.0
        ],
        "WindowWidth": [
          1922.0,
          1919.0,
          1917.0,
          1915.0,
          1921.0,
          1919.0,
          1917.0,
          1915.0,
          1916.0,
          1920.0,
          1916.0,
          1913.0,
          1913.0,
          1916.0,
          1915.0,
          1915.0,
          1916.0,
          1916.0,
          1916.0,
          1916.0,
          1913.0,
          1914.0,
          1914.0,
          1915.0,
          1915.0,
          1914.0,
          1915.0,
          1912.0,
          1915.0,
          1911.0,
          1908.0,
          1911.0,
          1908.0,
          1910.0,
          1911.0,
          1915.0,
          1915.0,
          1913.0,
          1913.0,
          1915.0,
          1923.0,
          1917.0,
          1911.0,
          1912.0,
          1913.0,
          1915.0,
          1916.0,
          1917.0,
          1916.0,
          1914.0,
          1916.0,
          1919.0,
          1921.0,
          1922.0,
          1916.0,
          1916.0,
          1915.0,
          1913.0,
          1916.0,
          1919.0,
          1920.0,
          1918.0,
          1916.0,
          1915.0,
          1919.0,
          1919.0,
          1917.0,
          1917.0,
          1919.0,
          1918.0,
          1915.0,
          1917.0,
          1921.0,
          1917.0,
          1912.0,
          1914.0,
          1922.0,
          1923.0,
          1922.0,
          1915.0,
          1913.0,
          1913.0,
          1914.0,
          1917.0,
          1915.0,
          1920.0,
          1920.0,
          1920.0,
          1919.0,
          1914.0,
          1912.0,
          1917.0,
          1921.0,
          1918.0,
          1921.0,
          1921.0,
          1920.0,
          1915.0,
          1914.0,
          1919.0,
          1922.0,
          1921.0,
          1918.0,
          1917.0,
          1915.0,
          1915.0,
          1920.0,
          1920.0,
          1918.0,
          1915.0,
          1914.0,
          1913.0,
          1916.0,
          1919.0,
          1918.0,
          1915.0,
          1917.0,
          1916.0,
          1918.0,
          1915.0,
          1914.0,
          1916.0,
          1919.0,
          1920.0,
          1919.0,
          1922.0,
          1924.0,
          1929.0,
          1924.0,
          1917.0,
          1917.0,
          1919.0,
          1921.0,
          1920.0,
          1923.0,
          1923.0,
          1920.0,
          1921.0,
          1921.0,
          1924.0,
          1923.0,
          1923.0,
          1920.0,
          1921.0,
          1922.0,
          1923.0,
          1921.0,
          1922.0,
          1922.0,
          1921.0
        ]
      },
      "slices": {}
    }
  },
  "dummy_trs": 0,
  "dvars_nstd": 75.48717468067112,
  "dvars_std": 1.0819969286577185,
  "dvars_vstd": 1.0126259808724833,
  "efc": 0.5343985692178211,
  "fber": 406.06427001953125,
  "fd_mean": 0.0631699358428077,
  "fd_num": 2,
  "fd_perc": 1.3333333333333333,
  "fwhm_avg": 2.978540074859962,
  "fwhm_x": 2.937490744595194,
  "fwhm_y": 2.963546083255102,
  "fwhm_z": 3.0345833967295888,
  "gcor": 0.00211581,
  "gsr_x": -0.0034552135039120913,
  "gsr_y": 0.05076312646269798,
  "provenance": {
    "md5sum": "e8f8e1b55646c739c30a0a8565c0e176",
    "settings": {
      "fd_thres": 0.2,
      "testing": false
    },
    "software": "mriqc",
    "version": "22.0.6",
    "webapi_port": null,
    "webapi_url": "https://mriqc.nimh.nih.gov/api/v1"
  },
  "size_t": 150,
  "size_x": 188,
  "size_y": 188,
  "size_z": 46,
  "snr": 2.3012143678363755,
  "spacing_tr": 2.5999999046325684,
  "spacing_x": 1.0957447290420532,
  "spacing_y": 1.0957447290420532,
  "spacing_z": 1.0999994277954102,
  "summary_bg_k": 81.25768100134938,
  "summary_bg_mad": 21.616340232698104,
  "summary_bg_mean": 81.35389709472656,
  "summary_bg_median": 46.34000015258789,
  "summary_bg_n": 1127632.0,
  "summary_bg_p05": 30.133333206176758,
