{
  "aor": 0.0006923333333333333,
  "aqi": 0.012962518,
  "bids_meta": {
    "AcquisitionMatrixPE": 188,
    "AcquisitionNumber": 1,
    "AcquisitionTime": "16:26:22.372500",
    "BandwidthPerPixelPhaseEncode": 19.46,
    "BaseResolution": 188,
    "CogAtlasID": "TODO",
    "ConversionSoftware": "dcm2niix",
    "ConversionSoftwareVersion": "v1.0.20180606 GCC4.8.5",
    "DelayTime": 1.2,
    "DerivedVendorReportedEchoSpacing": 0.000820013,
    "DeviceSerialNumber": "18930",
    "DwellTime": 1.9e-06,
    "EchoTime": 0.02,
    "EffectiveEchoSpacing": 0.000273338,
    "FlipAngle": 80,
    "ImageComments": "Unaliased_MB2_PE2",
    "ImageOrientationPatientDICOM": [
      0.999544,
      -0.0160305,
      -0.0255933,
      -0.0217359,
      0.206462,
      -0.978213
    ],
    "ImageType": [
      "ORIGINAL",
      "PRIMARY",
      "M",
      "MB",
      "ND",
      "MOSAIC"
    ],
    "InPlanePhaseEncodingDirectionDICOM": "COL",
    "InstitutionAddress": "Oxfordlaan_55_Maastricht_753AAF_Limburg_NL_6229_EV",
    "InstitutionName": "Scannexus",
    "InstitutionalDepartmentName": "MRI_7T",
    "MRAcquisitionType": "2D",
    "MagneticFieldStrength": 6.98,
    "Manufacturer": "Siemens",
    "ManufacturersModelName": "Investigational_Device_7T",
    "Modality": "MR",
    "MultibandAccelerationFactor": 2,
    "ParallelReductionFactorInPlane": 3,
    "PartialFourier": 0.75,
    "PatientPosition": "HFS",
    "PercentPhaseFOV": 100,
    "PhaseEncodingDirection": "j",
    "PhaseEncodingSteps": 141,
    "PhaseResolution": 1,
    "PixelBandwidth": 1400,
    "ProcedureStepDescription": "FeDem_Faruk",
    "ProtocolName": "cmrr_mbep2d_bold_AP_run9",
    "PulseSequenceDetails": "%CustomerSeq%_cmrr_mbep2d_bold",
    "ReceiveCoilName": "32Ch_Head_7T",
    "ReconMatrixPE": 188,
    "RepetitionTime": 2.6,
    "SAR": 0.105719,
    "ScanOptions": "PFP_FS",
    "ScanningSequence": "EP",
    "SequenceName": "epfid2d1_188",
    "SequenceVariant": "SK_SS",
    "SeriesDescription": "cmrr_mbep2d_bold_AP_run9",
    "SeriesNumber": 22,
    "ShimSetting": [
      51,
      -85,
      379,
      540,
      17,
      417,
      89,
      118
    ],
    "SliceThickness": 1.1,
    "SliceTiming": [
      0,
      0.7325,
      0.06,
      0.7925,
      0.1225,
      0.855,
      0.1825,
      0.915,
      0.2425,
      0.9775,
      0.305,
      1.0375,
      0.365,
      1.1,
      0.4275,
      1.16,
      0.4875,
      1.22,
      0.55,
      1.2825,
      0.61,
      1.3425,
      0.67,
      0,
      0.7325,
      0.06,
      0.7925,
      0.1225,
      0.855,
      0.1825,
      0.915,
      0.2425,
      0.9775,
      0.305,
      1.0375,
      0.365,
      1.1,
      0.4275,
      1.16,
      0.4875,
      1.22,
      0.55,
      1.2825,
      0.61,
      1.3425,
      0.67
    ],
    "SoftwareVersions": "syngo_MR_B17",
    "SpacingBetweenSlices": 1.1,
    "StationName": "MRC18930",
    "TaskName": "auditory",
    "TotalReadoutTime": 0.0511141,
    "TxRefAmp": 240,
    "dataset": "ds001942",
    "dcmmeta_affine": [
      [
        -1.0952450037002563,
        -0.023816999047994614,
        -0.023061836138367653,
        111.5621109008789
      ],
      [
        0.017565375193953514,
        0.2262294888496399,
        -1.0761550664901733,
        24.640995025634766
      ],
      [
        -0.028043698519468307,
        1.0718719959259033,
        0.22662104666233063,
        -108.53646850585938
      ],
      [
        0.0,
        0.0,
        0.0,
        1.0
      ]
    ],
    "dcmmeta_reorient_transform": [
      [
        0.0,
        -1.0,
        0.0,
        187.0
      ],
      [
        1.0,
        0.0,
        0.0,
        0.0
      ],
      [
        0.0,
        0.0,
        1.0,
        0.0
      ],
      [
        0.0,
        0.0,
        0.0,
        1.0
      ]
    ],
    "dcmmeta_shape": [
      188,
      188,
      46,
      150
    ],
    "dcmmeta_slice_dim": 2,
    "dcmmeta_version": 0.6,
    "global": {
      "const": {
        "AcquisitionMatrix": [
          188,
          0,
          0,
          188
        ],
        "AngioFlag": "N",
        "BitsAllocated": 16,
        "BitsStored": 12,
        "Columns": 1316,
        "EchoNumbers": 1,
        "EchoTime": 20.0,
        "EchoTrainLength": 1,
        "FlipAngle": 80.0,
        "HighBit": 11,
        "ImageOrientationPatient": [
          0.99954389901482,
          -0.0160305364317,
          -0.0255932773198,
          -0.0217359010372,
          0.20646185470948,
          -0.9782131941229
        ],
        "ImagePositionPatient": [
          -711.39369821386,
          -184.6324684504,
          712.25601335786
        ],
        "ImageType": [
          "ORIGINAL",
          "PRIMARY",
          "M",
          "MB",
          "ND",
          "MOSAIC"
        ],
        "ImagedNucleus": "1H",
        "ImagingFrequency": 297.205586,
        "InPlanePhaseEncodingDirection": "COL",
        "LargestImagePixelValue": 4095,
        "MRAcquisitionType": "2D",
        "MagneticFieldStrength": 6.98,
        "Manufacturer": "SIEMENS",
        "ManufacturerModelName": "Investigational_Device_7T",
        "Modality": "MR",
        "NumberOfAverages": 1.0,
        "NumberOfPhaseEncodingSteps": 141,
        "PercentPhaseFieldOfView": 100.0,
        "PercentSampling": 100.0,
        "PerformedProcedureStepStartTime": "145652.921000",
        "PhotometricInterpretation": "MONOCHROME2",
        "PixelBandwidth": 1400.0,
        "PixelRepresentation": 0,
        "PixelSpacing": [
          1.0957447290421,
          1.0957447290421
        ],
        "ProtocolName": "cmrr_mbep2d_bold_AP_run9",
        "RepetitionTime": 2600.0,
        "Rows": 1316,
        "SAR": 0.10571912476696,
        "SamplesPerPixel": 1,
        "ScanOptions": [
          "PFP",
          "FS"
        ],
        "ScanningSequence": "EP",
        "SequenceName": "epfid2d1_188",
        "SequenceVariant": [
          "SK",
          "SS"
        ],
        "SeriesDescription": "cmrr_mbep2d_bold_AP_run9",
        "SeriesNumber": 22,
        "SeriesTime": "162631.078000",
        "SliceLocation": -48.806395968835,
        "SliceThickness": 1.1000000238419,
        "SmallestImagePixelValue": 0,
        "SoftwareVersions": "syngo MR B17",
        "SpacingBetweenSlices": 1.0999993978041,
        "SpecificCharacterSet": "ISO_IR 100",
        "StudyID": "1",
        "StudyTime": "145652.875000",
        "TransmitCoilName": "32Ch_Head_7T",
        "VariableFlipAngleFlag": "N",
        "WindowCenterWidthExplanation": "Algo1",
        "dBdt": 0.0
      },
      "slices": {}
    },
    "modality": "bold",
    "run_id": 9,
    "session_id": "SES03",
    "subject_id": "S08",
    "task_id": "auditory",
    "time": {
      "samples": {
        "AcquisitionNumber": [
          1,
          2,
          3,
          4,
          5,
          6,
          7,
          8,
          9,
          10,
          11,
          12,
          13,
          14,
          15,
          16,
          17,
          18,
          19,
          20,
          21,
          22,
          23,
          24,
          25,
          26,
          27,
          28,
          29,
          30,
          31,
          32,
          33,
          34,
          35,
          36,
          37,
          38,
          39,
          40,
          41,
          42,
          43,
          44,
          45,
          46,
          47,
          48,
          49,
          50,
          51,
          52,
          53,
          54,
          55,
          56,
          57,
          58,
          59,
          60,
          61,
          62,
          63,
          64,
          65,
          66,
          67,
          68,
          69,
          70,
          71,
          72,
          73,
          74,
          75,
          76,
          77,
          78,
          79,
          80,
          81,
          82,
          83,
          84,
          85,
          86,
          87,
          88,
          89,
          90,
          91,
          92,
          93,
          94,
          95,
          96,
          97,
          98,
          99,
          100,
          101,
          102,
          103,
          104,
          105,
          106,
          107,
          108,
          109,
          110,
          111,
          112,
          113,
          114,
          115,
          116,
          117,
          118,
          119,
          120,
          121,
          122,
          123,
          124,
          125,
          126,
          127,
          128,
          129,
          130,
          131,
          132,
          133,
          134,
          135,
          136,
          137,
          138,
          139,
          140,
          141,
          142,
          143,
          144,
          145,
          146,
          147,
          148,
          149,
          150
        ],
        "AcquisitionTime": [
          "162622.372500",
          "162624.982500",
          "162627.592500",
          "162630.202500",
          "162632.812500",
          "162635.425000",
          "162638.035000",
          "162640.645000",
          "162643.255000",
          "162645.865000",
          "162648.475000",
          "162651.087500",
          "162653.697500",
          "162656.307500",
          "162658.917500",
          "162701.527500",
          "162704.137500",
          "162706.750000",
          "162709.360000",
          "162711.970000",
          "162714.580000",
          "162717.190000",
          "162719.802500",
          "162722.412500",
          "162725.022500",
          "162727.632500",
          "162730.242500",
          "162732.852500",
          "162735.465000",
          "162738.075000",
          "162740.685000",
          "162743.295000",
          "162745.905000",
          "162748.515000",
          "162751.127500",
          "162753.737500",
          "162756.347500",
          "162758.957500",
          "162801.567500",
          "162804.180000",
          "162806.790000",
          "162809.400000",
          "162812.010000",
          "162814.620000",
          "162817.230000",
          "162819.842500",
          "162822.452500",
          "162825.062500",
          "162827.672500",
          "162830.282500",
          "162832.892500",
          "162835.505000",
          "162838.115000",
          "162840.725000",
          "162843.335000",
          "162845.945000",
          "162848.557500",
          "162851.167500",
          "162853.777500",
          "162856.387500",
          "162858.997500",
          "162901.607500",
          "162904.220000",
          "162906.830000",
          "162909.440000",
          "162912.050000",
          "162914.660000",
          "162917.270000",
          "162919.882500",
          "162922.492500",
          "162925.102500",
          "162927.712500",
          "162930.322500",
          "162932.935000",
          "162935.545000",
          "162938.155000",
          "162940.765000",
          "162943.375000",
          "162945.985000",
          "162948.597500",
          "162951.207500",
          "162953.817500",
          "162956.427500",
          "162959.037500",
          "163001.647500",
          "163004.260000",
          "163006.870000",
          "163009.480000",
          "163012.090000",
          "163014.700000",
          "163017.312500",
          "163019.922500",
          "163022.532500",
          "163025.142500",
          "163027.752500",
          "163030.362500",
          "163032.975000",
          "163035.585000",
          "163038.195000",
          "163040.805000",
          "163043.415000",
          "163046.025000",
          "163048.637500",
          "163051.247500",
          "163053.857500",
          "163056.467500",
          "163059.077500",
          "163101.690000",
          "163104.300000",
          "163106.910000",
          "163109.520000",
          "163112.130000",
          "163114.740000",
          "163117.352500",
          "163119.962500",
          "163122.572500",
          "163125.182500",
          "163127.792500",
          "163130.402500",
          "163133.015000",
          "163135.625000",
          "163138.235000",
          "163140.845000",
          "163143.455000",
          "163146.067500",
          "163148.677500",
          "163151.287500",
          "163153.897500",
          "163156.507500",
          "163159.117500",
          "163201.730000",
          "163204.340000",
          "163206.950000",
          "163209.560000",
          "163212.170000",
          "163214.780000",
          "163217.392500",
          "163220.002500",
          "163222.612500",
          "163225.222500",
          "163227.832500",
          "163230.445000",
          "163233.055000",
          "163235.665000",
          "163238.275000",
          "163240.885000",
          "163243.495000",
          "163246.107500",
          "163248.717500",
          "163251.327500"
        ],
        "ContentTime": [
          "162631.093000",
          "162631.578000",
          "162632.078000",
          "162634.078000",
          "162637.078000",
          "162639.578000",
          "162642.078000",
          "162644.578000",
          "162647.078000",
          "162650.078000",
          "162652.578000",
          "162655.078000",
          "162657.578000",
          "162700.078000",
          "162703.078000",
          "162705.578000",
          "162708.078000",
          "162710.578000",
          "162713.078000",
          "162716.078000",
          "162718.578000",
          "162721.078000",
          "162723.578000",
          "162726.078000",
          "162729.078000",
          "162731.578000",
          "162734.078000",
          "162736.578000",
          "162739.078000",
          "162742.078000",
          "162744.578000",
          "162747.078000",
          "162749.578000",
          "162752.078000",
          "162755.078000",
          "162757.578000",
          "162800.078000",
          "162802.578000",
          "162805.078000",
          "162808.078000",
          "162810.578000",
          "162813.078000",
          "162815.578000",
          "162818.078000",
          "162821.078000",
          "162823.578000",
          "162826.078000",
          "162828.578000",
          "162831.078000",
          "162834.078000",
          "162836.578000",
          "162839.078000",
          "162841.578000",
          "162844.078000",
          "162847.078000",
          "162849.578000",
          "162852.078000",
          "162854.578000",
          "162857.078000",
          "162900.078000",
          "162902.578000",
          "162905.078000",
          "162907.578000",
          "162910.078000",
          "162913.078000",
          "162915.578000",
          "162918.078000",
          "162920.578000",
          "162923.078000",
          "162926.078000",
          "162928.578000",
          "162931.078000",
          "162933.578000",
          "162936.578000",
          "162939.078000",
          "162941.578000",
          "162944.078000",
          "162946.578000",
          "162949.078000",
          "162952.078000",
          "162954.578000",
          "162957.078000",
          "162959.578000",
          "163002.078000",
          "163005.078000",
          "163007.578000",
          "163010.078000",
          "163012.578000",
          "163015.078000",
          "163018.078000",
          "163020.578000",
          "163023.078000",
          "163025.578000",
          "163028.078000",
          "163031.078000",
          "163033.578000",
          "163036.078000",
          "163038.578000",
          "163041.078000",
          "163044.078000",
          "163046.578000",
          "163049.078000",
          "163051.578000",
          "163054.078000",
          "163057.093000",
          "163059.578000",
          "163102.078000",
          "163104.578000",
          "163107.078000",
          "163110.078000",
          "163112.578000",
          "163115.078000",
          "163117.578000",
          "163120.078000",
          "163123.078000",
          "163125.578000",
          "163128.078000",
          "163130.578000",
          "163133.078000",
          "163136.078000",
          "163138.578000",
          "163141.078000",
          "163143.578000",
          "163146.078000",
          "163149.078000",
          "163151.578000",
          "163154.078000",
          "163156.578000",
          "163159.078000",
          "163202.078000",
          "163204.578000",
          "163207.078000",
          "163209.578000",
          "163212.078000",
          "163215.078000",
          "163217.578000",
          "163220.078000",
          "163222.578000",
          "163225.078000",
          "163228.078000",
          "163230.578000",
          "163233.078000",
          "163235.578000",
          "163238.078000",
          "163241.078000",
          "163243.578000",
          "163246.078000",
          "163248.578000",
          "163251.578000",
          "163258.656000"
        ],
        "InstanceCreationTime": [
          "162631.093000",
          "162631.578000",
          "162632.078000",
          "162634.078000",
          "162637.078000",
          "162639.578000",
          "162642.078000",
          "162644.578000",
          "162647.078000",
          "162650.078000",
          "162652.578000",
          "162655.078000",
          "162657.578000",
          "162700.078000",
          "162703.078000",
          "162705.578000",
          "162708.078000",
          "162710.578000",
          "162713.078000",
          "162716.078000",
          "162718.578000",
          "162721.078000",
          "162723.578000",
          "162726.078000",
          "162729.078000",
          "162731.578000",
          "162734.078000",
          "162736.578000",
          "162739.078000",
          "162742.078000",
          "162744.578000",
          "162747.078000",
          "162749.578000",
          "162752.078000",
          "162755.078000",
          "162757.578000",
          "162800.078000",
          "162802.578000",
          "162805.078000",
          "162808.078000",
          "162810.578000",
          "162813.078000",
          "162815.578000",
          "162818.078000",
          "162821.078000",
          "162823.578000",
          "162826.078000",
          "162828.578000",
          "162831.078000",
          "162834.078000",
          "162836.578000",
          "162839.078000",
          "162841.578000",
          "162844.078000",
          "162847.078000",
          "162849.578000",
          "162852.078000",
          "162854.578000",
          "162857.078000",
          "162900.078000",
          "162902.578000",
          "162905.078000",
          "162907.578000",
          "162910.078000",
          "162913.078000",
          "162915.578000",
          "162918.078000",
          "162920.578000",
          "162923.078000",
          "162926.078000",
          "162928.578000",
          "162931.078000",
          "162933.578000",
          "162936.578000",
          "162939.078000",
          "162941.578000",
          "162944.078000",
          "162946.578000",
          "162949.078000",
          "162952.078000",
          "162954.578000",
          "162957.078000",
          "162959.578000",
          "163002.078000",
          "163005.078000",
          "163007.578000",
          "163010.078000",
          "163012.578000",
          "163015.078000",
          "163018.078000",
          "163020.578000",
          "163023.078000",
          "163025.578000",
          "163028.078000",
          "163031.078000",
          "163033.578000",
          "163036.078000",
          "163038.578000",
          "163041.078000",
          "163044.078000",
          "163046.578000",
          "163049.078000",
          "163051.578000",
          "163054.078000",
          "163057.093000",
          "163059.578000",
          "163102.078000",
          "163104.578000",
          "163107.078000",
          "163110.078000",
          "163112.578000",
          "163115.078000",
          "163117.578000",
          "163120.078000",
          "163123.078000",
          "163125.578000",
          "163128.078000",
          "163130.578000",
          "163133.078000",
          "163136.078000",
          "163138.578000",
          "163141.078000",
          "163143.578000",
          "163146.078000",
          "163149.078000",
          "163151.578000",
          "163154.078000",
          "163156.578000",
          "163159.078000",
          "163202.078000",
          "163204.578000",
          "163207.078000",
          "163209.578000",
          "163212.078000",
          "163215.078000",
          "163217.578000",
          "163220.078000",
          "163222.578000",
          "163225.078000",
          "163228.078000",
          "163230.578000",
          "163233.078000",
          "163235.578000",
          "163238.078000",
          "163241.078000",
          "163243.578000",
          "163246.078000",
          "163248.578000",
          "163251.578000",
          "163258.656000"
        ],
        "InstanceNumber": [
          1,
          2,
          3,
          4,
          5,
          6,
          7,
          8,
          9,
          10,
          11,
          12,
          13,
          14,
          15,
          16,
          17,
          18,
          19,
          20,
          21,
          22,
          23,
          24,
          25,
          26,
          27,
          28,
          29,
          30,
          31,
          32,
          33,
          34,
          35,
          36,
          37,
          38,
          39,
          40,
          41,
          42,
          43,
          44,
          45,
          46,
          47,
          48,
          49,
          50,
          51,
          52,
          53,
          54,
          55,
          56,
          57,
          58,
          59,
          60,
          61,
          62,
          63,
          64,
          65,
          66,
          67,
          68,
          69,
          70,
          71,
          72,
          73,
          74,
          75,
          76,
          77,
          78,
          79,
          80,
          81,
          82,
          83,
          84,
          85,
          86,
          87,
          88,
          89,
          90,
          91,
          92,
          93,
          94,
          95,
          96,
          97,
          98,
          99,
          100,
          101,
          102,
          103,
          104,
          105,
          106,
          107,
          108,
          109,
          110,
          111,
          112,
          113,
          114,
          115,
          116,
          117,
          118,
          119,
          120,
          121,
          122,
          123,
          124,
          125,
          126,
          127,
          128,
          129,
          130,
          131,
          132,
          133,
          134,
          135,
          136,
          137,
          138,
          139,
          140,
          141,
          142,
          143,
          144,
          145,
          146,
          147,
          148,
          149,
          150
        ],
        "WindowCenter": [
          823.0,
          823.0,
          822.0,
          822.0,
          821.0,
          821.0,
          822.0,
          822.0,
          821.0,
          821.0,
          822.0,
          822.0,
          822.0,
          823.0,
          822.0,
          821.0,
          822.0,
          823.0,
          823.0,
          822.0,
          822.0,
          822.0,
          822.0,
          822.0,
          822.0,
          823.0,
          823.0,
          822.0,
          821.0,
          821.0,
          823.0,
          823.0,
          822.0,
          821.0,
          823.0,
          823.0,
          822.0,
          821.0,
          822.0,
          822.0,
          822.0,
          822.0,
          822.0,
          822.0,
          822.0,
          822.0,
          822.0,
          823.0,
          822.0,
          822.0,
          823.0,
          823.0,
          822.0,
          822.0,
          824.0,
          823.0,
          823.0,
          823.0,
          824.0,
          823.0,
          823.0,
          823.0,
          822.0,
          822.0,
          822.0,
          822.0,
          823.0,
          823.0,
          823.0,
          822.0,
          821.0,
          822.0,
          825.0,
          823.0,
          822.0,
          822.0,
          823.0,
          823.0,
          823.0,
          823.0,
          824.0,
          823.0,
          823.0,
          824.0,
          823.0,
          822.0,
          824.0,
          823.0,
          822.0,
          822.0,
          822.0,
          823.0,
          823.0,
          823.0,
          824.0,
          824.0,
          823.0,
          822.0,
          822.0,
          823.0,
          823.0,
          823.0,
          823.0,
          823.0,
          822.0,
          822.0,
          823.0,
          824.0,
          823.0,
          823.0,
          823.0,
          823.0,
          825.0,
          824.0,
          823.0,
          823.0,
          824.0,
          823.0,
          823.0,
          823.0,
          824.0,
          824.0,
          823.0,
          823.0,
          823.0,
          823.0,
          824.0,
          823.0,
          823.0,
          823.0,
          823.0,
          823.0,
          823.0,
          823.0,
          825.0,
          825.0,
          824.0,
          824.0,
          825.0,
          825.0,
          825.0,
          825.0,
          824.0,
          824.0,
          824.0,
          824.0,
          824.0,
          824.0,
          824.0,
          824.0
        ],
        "WindowWidth": [
          1910.0,
          1908.0,
          1906.0,
          1902.0,
          1901.0,
          1902.0,
          1904.0,
          1904.0,
          1899.0,
          1901.0,
          1904.0,
          1907.0,
          1907.0,
          1907.0,
          1905.0,
          1902.0,
          1906.0,
          1908.0,
          1907.0,
          1905.0,
          1904.0,
          1905.0,
          1907.0,
          1905.0,
          1906.0,
          1909.0,
          1907.0,
          1906.0,
          1903.0,
          1903.0,
          1908.0,
          1907.0,
          1903.0,
          1902.0,
          1909.0,
          1908.0,
          1905.0,
          1903.0,
          1906.0,
          1907.0,
          1906.0,
          1905.0,
          1904.0,
          1905.0,
          1903.0,
          1905.0,
          1904.0,
          1907.0,
          1906.0,
          1907.0,
          1909.0,
          1909.0,
          1905.0,
          1906.0,
          1911.0,
          1909.0,
          1908.0,
          1908.0,
          1912.0,
          1907.0,
          1908.0,
          1908.0,
          1906.0,
          1906.0,
          1905.0,
          1907.0,
          1909.0,
          1908.0,
          1909.0,
          1904.0,
          1902.0,
          1909.0,
          1919.0,
          1908.0,
          1906.0,
          1904.0,
          1907.0,
          1909.0,
          1909.0,
          1911.0,
          1910.0,
          1907.0,
          1908.0,
          1910.0,
          1908.0,
          1905.0,
          1912.0,
          1909.0,
          1905.0,
          1906.0,
          1906.0,
          1906.0,
          1907.0,
          1910.0,
          1912.0,
          1912.0,
          1907.0,
          1906.0,
          1906.0,
          1907.0,
          1908.0,
          1907.0,
          1908.0,
          1907.0,
          1905.0,
          1906.0,
          1909.0,
          1913.0,
          1909.0,
          1909.0,
          1910.0,
          1911.0,
          1918.0,
          1913.0,
          1908.0,
          1908.0,
          1911.0,
          1910.0,
          1909.0,
          1909.0,
          1914.0,
          1913.0,
          1909.0,
          1908.0,
          1909.0,
          1909.0,
          1912.0,
          1909.0,
          1908.0,
          1908.0,
          1909.0,
          1909.0,
          1911.0,
          1911.0,
          1916.0,
          1917.0,
          1914.0,
          1913.0,
          1917.0,
          1917.0,
          1916.0,
          1917.0,
          1914.0,
          1913.0,
          1914.0,
          1913.0,
          1914.0,
          1914.0,
          1916.0,
          1913.0
        ]
      },
      "slices": {}
    }
  },
  "dummy_trs": 0,
  "dvars_nstd": 75.24420145536915,
  "dvars_std": 1.0897794314093963,
  "dvars_vstd": 1.0194077326845643,
  "efc": 0.5332539350018527,
  "fber": 418.9400939941406,
  "fd_mean": 0.058504361364392236,
  "fd_num": 0,
  "fd_perc": 0.0,
  "fwhm_avg": 2.9496463691609764,
  "fwhm_x": 2.9144744349278424,
  "fwhm_y": 2.9467994820498724,
  "fwhm_z": 2.9876651905052136,
  "gcor": 0.00221113,
  "gsr_x": -0.003738414729014039,
  "gsr_y": 0.049998726695775986,
  "provenance": {
    "md5sum": "60bda131dda59c9f8a5ab50565b6e9bc",
    "settings": {
      "fd_thres": 0.2,
      "testing": false
    },
    "software": "mriqc",
    "version": "22.0.0rc1",
    "webapi_port": null,
    "webapi_url": "https://mriqc.nimh.nih.gov/api/v1"
  },
  "size_t": 150,
  "size_x": 188,
  "size_y": 188,
  "size_z": 46,
  "snr": 2.3228383181217525,
  "spacing_tr": 2.5999999046325684,
  "spacing_x": 1.0957447290420532,
  "spacing_y": 1.0957447290420532,
  "spacing_z": 1.0999994277954102,
  "summary_bg_k": 81.88747433836815,
  "summary_bg_mad": 20.647709120954943,
  "summary_bg_mean": 79.10661315917969,
  "summary_bg_median": 45.47333526611328,
  "summary_bg_n": 1127481.0,
  "summary_bg_p05": 29.900001525878906,
  "summary_bg_p95": 223.73333740234375,
