{
  "aor": 0.0005773333333333333,
  "aqi": 0.014496890666666668,
  "bids_meta": {
    "AcquisitionMatrixPE": 188,
    "AcquisitionNumber": 1,
    "AcquisitionTime": "16:34:7.297500",
    "BandwidthPerPixelPhaseEncode": 19.46,
    "BaseResolution": 188,
    "CogAtlasID": "TODO",
    "ConversionSoftware": "dcm2niix",
    "ConversionSoftwareVersion": "v1.0.20180606 GCC4.8.5",
    "DelayTime": 1.2,
    "DerivedVendorReportedEchoSpacing": 0.000820013,
    "DeviceSerialNumber": "18930",
    "DwellTime": 1.9e-06,
    "EchoTime": 0.02,
    "EffectiveEchoSpacing": 0.000273338,
    "FlipAngle": 80,
    "ImageComments": "Unaliased_MB2_PE2",
    "ImageOrientationPatientDICOM": [
      0.999544,
      -0.0160305,
      -0.0255933,
      -0.0217359,
      0.206462,
      -0.978213
    ],
    "ImageType": [
      "ORIGINAL",
      "PRIMARY",
      "M",
      "MB",
      "ND",
      "MOSAIC"
    ],
    "InPlanePhaseEncodingDirectionDICOM": "COL",
    "InstitutionAddress": "Oxfordlaan_55_Maastricht_753AAF_Limburg_NL_6229_EV",
    "InstitutionName": "Scannexus",
    "InstitutionalDepartmentName": "MRI_7T",
    "MRAcquisitionType": "2D",
    "MagneticFieldStrength": 6.98,
    "Manufacturer": "Siemens",
    "ManufacturersModelName": "Investigational_Device_7T",
    "Modality": "MR",
    "MultibandAccelerationFactor": 2,
    "ParallelReductionFactorInPlane": 3,
    "PartialFourier": 0.75,
    "PatientPosition": "HFS",
    "PercentPhaseFOV": 100,
    "PhaseEncodingDirection": "j",
    "PhaseEncodingSteps": 141,
    "PhaseResolution": 1,
    "PixelBandwidth": 1400,
    "ProcedureStepDescription": "FeDem_Faruk",
    "ProtocolName": "cmrr_mbep2d_bold_AP_run10",
    "PulseSequenceDetails": "%CustomerSeq%_cmrr_mbep2d_bold",
    "ReceiveCoilName": "32Ch_Head_7T",
    "ReconMatrixPE": 188,
    "RepetitionTime": 2.6,
    "SAR": 0.10618,
    "ScanOptions": "PFP_FS",
    "ScanningSequence": "EP",
    "SequenceName": "epfid2d1_188",
    "SequenceVariant": "SK_SS",
    "SeriesDescription": "cmrr_mbep2d_bold_AP_run10",
    "SeriesNumber": 23,
    "ShimSetting": [
      51,
      -85,
      379,
      540,
      17,
      417,
      89,
      118
    ],
    "SliceThickness": 1.1,
    "SliceTiming": [
      0,
      0.7325,
      0.06,
      0.7925,
      0.1225,
      0.855,
      0.1825,
      0.915,
      0.2425,
      0.9775,
      0.305,
      1.0375,
      0.365,
      1.1,
      0.4275,
      1.16,
      0.4875,
      1.22,
      0.55,
      1.2825,
      0.61,
      1.3425,
      0.6725,
      0,
      0.7325,
      0.06,
      0.7925,
      0.1225,
      0.855,
      0.1825,
      0.915,
      0.2425,
      0.9775,
      0.305,
      1.0375,
      0.365,
      1.1,
      0.4275,
      1.16,
      0.4875,
      1.22,
      0.55,
      1.2825,
      0.61,
      1.3425,
      0.6725
    ],
    "SoftwareVersions": "syngo_MR_B17",
    "SpacingBetweenSlices": 1.1,
    "StationName": "MRC18930",
    "TaskName": "auditory",
    "TotalReadoutTime": 0.0511141,
    "TxRefAmp": 240,
    "dataset": "ds001942",
    "dcmmeta_affine": [
      [
        -1.0952450037002563,
        -0.023816999047994614,
        -0.023061836138367653,
        111.5621109008789
      ],
      [
        0.017565375193953514,
        0.2262294888496399,
        -1.0761550664901733,
        24.640995025634766
      ],
      [
        -0.028043698519468307,
        1.0718719959259033,
        0.22662104666233063,
        -108.53646850585938
      ],
      [
        0.0,
        0.0,
        0.0,
        1.0
      ]
    ],
    "dcmmeta_reorient_transform": [
      [
        0.0,
        -1.0,
        0.0,
        187.0
      ],
      [
        1.0,
        0.0,
        0.0,
        0.0
      ],
      [
        0.0,
        0.0,
        1.0,
        0.0
      ],
      [
        0.0,
        0.0,
        0.0,
        1.0
      ]
    ],
    "dcmmeta_shape": [
      188,
      188,
      46,
      150
    ],
    "dcmmeta_slice_dim": 2,
    "dcmmeta_version": 0.6,
    "global": {
      "const": {
        "AcquisitionMatrix": [
          188,
          0,
          0,
          188
        ],
        "AngioFlag": "N",
        "BitsAllocated": 16,
        "BitsStored": 12,
        "Columns": 1316,
        "EchoNumbers": 1,
        "EchoTime": 20.0,
        "EchoTrainLength": 1,
        "FlipAngle": 80.0,
        "HighBit": 11,
        "ImageOrientationPatient": [
          0.99954389901482,
          -0.0160305364317,
          -0.0255932773198,
          -0.0217359010372,
          0.20646185470948,
          -0.9782131941229
        ],
        "ImagePositionPatient": [
          -711.39369821386,
          -184.6324684504,
          712.25601335786
        ],
        "ImageType": [
          "ORIGINAL",
          "PRIMARY",
          "M",
          "MB",
          "ND",
          "MOSAIC"
        ],
        "ImagedNucleus": "1H",
        "ImagingFrequency": 297.205584,
        "InPlanePhaseEncodingDirection": "COL",
        "LargestImagePixelValue": 4095,
        "MRAcquisitionType": "2D",
        "MagneticFieldStrength": 6.98,
        "Manufacturer": "SIEMENS",
        "ManufacturerModelName": "Investigational_Device_7T",
        "Modality": "MR",
        "NumberOfAverages": 1.0,
        "NumberOfPhaseEncodingSteps": 141,
        "PercentPhaseFieldOfView": 100.0,
        "PercentSampling": 100.0,
        "PerformedProcedureStepStartTime": "145652.921000",
        "PhotometricInterpretation": "MONOCHROME2",
        "PixelBandwidth": 1400.0,
        "PixelRepresentation": 0,
        "PixelSpacing": [
          1.0957447290421,
          1.0957447290421
        ],
        "ProtocolName": "cmrr_mbep2d_bold_AP_run10",
        "RepetitionTime": 2600.0,
        "Rows": 1316,
        "SAR": 0.10617981841764,
        "SamplesPerPixel": 1,
        "ScanOptions": [
          "PFP",
          "FS"
        ],
        "ScanningSequence": "EP",
        "SequenceName": "epfid2d1_188",
        "SequenceVariant": [
          "SK",
          "SS"
        ],
        "SeriesDescription": "cmrr_mbep2d_bold_AP_run10",
        "SeriesNumber": 23,
        "SeriesTime": "163416.046000",
        "SliceLocation": -48.806395968835,
        "SliceThickness": 1.1000000238419,
        "SmallestImagePixelValue": 0,
        "SoftwareVersions": "syngo MR B17",
        "SpacingBetweenSlices": 1.0999993978041,
        "SpecificCharacterSet": "ISO_IR 100",
        "StudyID": "1",
        "StudyTime": "145652.875000",
        "TransmitCoilName": "32Ch_Head_7T",
        "VariableFlipAngleFlag": "N",
        "WindowCenterWidthExplanation": "Algo1",
        "dBdt": 0.0
      },
      "slices": {}
    },
    "modality": "bold",
    "run_id": 10,
    "session_id": "SES03",
    "subject_id": "S08",
    "task_id": "auditory",
    "time": {
      "samples": {
        "AcquisitionNumber": [
          1,
          2,
          3,
          4,
          5,
          6,
          7,
          8,
          9,
          10,
          11,
          12,
          13,
          14,
          15,
          16,
          17,
          18,
          19,
          20,
          21,
          22,
          23,
          24,
          25,
          26,
          27,
          28,
          29,
          30,
          31,
          32,
          33,
          34,
          35,
          36,
          37,
          38,
          39,
          40,
          41,
          42,
          43,
          44,
          45,
          46,
          47,
          48,
          49,
          50,
          51,
          52,
          53,
          54,
          55,
          56,
          57,
          58,
          59,
          60,
          61,
          62,
          63,
          64,
          65,
          66,
          67,
          68,
          69,
          70,
          71,
          72,
          73,
          74,
          75,
          76,
          77,
          78,
          79,
          80,
          81,
          82,
          83,
          84,
          85,
          86,
          87,
          88,
          89,
          90,
          91,
          92,
          93,
          94,
          95,
          96,
          97,
          98,
          99,
          100,
          101,
          102,
          103,
          104,
          105,
          106,
          107,
          108,
          109,
          110,
          111,
          112,
          113,
          114,
          115,
          116,
          117,
          118,
          119,
          120,
          121,
          122,
          123,
          124,
          125,
          126,
          127,
          128,
          129,
          130,
          131,
          132,
          133,
          134,
          135,
          136,
          137,
          138,
          139,
          140,
          141,
          142,
          143,
          144,
          145,
          146,
          147,
          148,
          149,
          150
        ],
        "AcquisitionTime": [
          "163407.297500",
          "163409.907500",
          "163412.517500",
          "163415.127500",
          "163417.737500",
          "163420.350000",
          "163422.960000",
          "163425.570000",
          "163428.180000",
          "163430.790000",
          "163433.400000",
          "163436.012500",
          "163438.622500",
          "163441.232500",
          "163443.842500",
          "163446.452500",
          "163449.062500",
          "163451.675000",
          "163454.285000",
          "163456.895000",
          "163459.505000",
          "163502.115000",
          "163504.727500",
          "163507.337500",
          "163509.947500",
          "163512.557500",
          "163515.167500",
          "163517.777500",
          "163520.390000",
          "163523.000000",
          "163525.610000",
          "163528.220000",
          "163530.830000",
          "163533.440000",
          "163536.052500",
          "163538.662500",
          "163541.272500",
          "163543.882500",
          "163546.492500",
          "163549.105000",
          "163551.715000",
          "163554.325000",
          "163556.935000",
          "163559.545000",
          "163602.155000",
          "163604.767500",
          "163607.377500",
          "163609.987500",
          "163612.597500",
          "163615.207500",
          "163617.817500",
          "163620.430000",
          "163623.040000",
          "163625.650000",
          "163628.260000",
          "163630.870000",
          "163633.482500",
          "163636.092500",
          "163638.702500",
          "163641.312500",
          "163643.922500",
          "163646.532500",
          "163649.145000",
          "163651.755000",
          "163654.365000",
          "163656.975000",
          "163659.585000",
          "163702.195000",
          "163704.807500",
          "163707.417500",
          "163710.027500",
          "163712.637500",
          "163715.247500",
          "163717.860000",
          "163720.470000",
          "163723.080000",
          "163725.690000",
          "163728.300000",
          "163730.910000",
          "163733.522500",
          "163736.132500",
          "163738.742500",
          "163741.352500",
          "163743.962500",
          "163746.572500",
          "163749.185000",
          "163751.795000",
          "163754.405000",
          "163757.015000",
          "163759.625000",
          "163802.237500",
          "163804.847500",
          "163807.457500",
          "163810.067500",
          "163812.677500",
          "163815.287500",
          "163817.900000",
          "163820.510000",
          "163823.120000",
          "163825.730000",
          "163828.340000",
          "163830.952500",
          "163833.562500",
          "163836.172500",
          "163838.782500",
          "163841.392500",
          "163844.002500",
          "163846.615000",
          "163849.225000",
          "163851.835000",
          "163854.445000",
          "163857.055000",
          "163859.665000",
          "163902.277500",
          "163904.887500",
          "163907.497500",
          "163910.107500",
          "163912.717500",
          "163915.330000",
          "163917.940000",
          "163920.550000",
          "163923.160000",
          "163925.770000",
          "163928.380000",
          "163930.992500",
          "163933.602500",
          "163936.212500",
          "163938.822500",
          "163941.432500",
          "163944.042500",
          "163946.655000",
          "163949.265000",
          "163951.875000",
          "163954.485000",
          "163957.095000",
          "163959.707500",
          "164002.317500",
          "164004.927500",
          "164007.537500",
          "164010.147500",
          "164012.757500",
          "164015.370000",
          "164017.980000",
          "164020.590000",
          "164023.200000",
          "164025.810000",
          "164028.420000",
          "164031.032500",
          "164033.642500",
          "164036.252500"
        ],
        "ContentTime": [
          "163416.046000",
          "163416.046000",
          "163417.046000",
          "163419.046000",
          "163422.046000",
          "163424.546000",
          "163427.046000",
          "163429.546000",
          "163432.046000",
          "163435.046000",
          "163437.546000",
          "163440.046000",
          "163442.546000",
          "163445.046000",
          "163448.046000",
          "163450.546000",
          "163453.046000",
          "163455.546000",
          "163458.046000",
          "163501.046000",
          "163503.546000",
          "163506.046000",
          "163508.546000",
          "163511.046000",
          "163514.046000",
          "163516.546000",
          "163519.046000",
          "163521.546000",
          "163524.046000",
          "163527.046000",
          "163529.546000",
          "163532.046000",
          "163534.546000",
          "163537.046000",
          "163540.046000",
          "163542.546000",
          "163545.046000",
          "163547.546000",
          "163550.046000",
          "163553.046000",
          "163555.546000",
          "163558.046000",
          "163600.546000",
          "163603.046000",
          "163606.046000",
          "163608.546000",
          "163611.046000",
          "163613.546000",
          "163616.046000",
          "163619.046000",
          "163621.546000",
          "163624.046000",
          "163626.546000",
          "163629.046000",
          "163632.046000",
          "163634.546000",
          "163637.046000",
          "163639.546000",
          "163642.046000",
          "163645.046000",
          "163647.546000",
          "163650.046000",
          "163652.546000",
          "163655.046000",
          "163658.046000",
          "163700.546000",
          "163703.046000",
          "163705.546000",
          "163708.046000",
          "163711.046000",
          "163713.546000",
          "163716.046000",
          "163718.546000",
          "163721.046000",
          "163724.046000",
          "163726.546000",
          "163729.046000",
          "163731.546000",
          "163734.046000",
          "163737.046000",
          "163739.546000",
          "163742.046000",
          "163744.546000",
          "163747.046000",
          "163750.046000",
          "163752.546000",
          "163755.046000",
          "163757.546000",
          "163800.046000",
          "163803.046000",
          "163805.546000",
          "163808.046000",
          "163810.546000",
          "163813.046000",
          "163816.046000",
          "163818.546000",
          "163821.046000",
          "163823.546000",
          "163826.046000",
          "163829.046000",
          "163831.546000",
          "163834.046000",
          "163836.546000",
          "163839.046000",
          "163842.046000",
          "163844.546000",
          "163847.046000",
          "163849.546000",
          "163852.046000",
          "163855.046000",
          "163857.546000",
          "163900.046000",
          "163902.546000",
          "163905.046000",
          "163908.046000",
          "163910.546000",
          "163913.046000",
          "163915.546000",
          "163918.046000",
          "163921.046000",
          "163923.546000",
          "163926.046000",
          "163928.546000",
          "163931.046000",
          "163934.046000",
          "163936.546000",
          "163939.046000",
          "163941.546000",
          "163944.046000",
          "163947.046000",
          "163949.546000",
          "163952.046000",
          "163954.546000",
          "163957.046000",
          "164000.046000",
          "164002.546000",
          "164005.046000",
          "164007.546000",
          "164010.046000",
          "164013.046000",
          "164015.546000",
          "164018.046000",
          "164020.546000",
          "164023.046000",
          "164026.046000",
          "164028.546000",
          "164031.046000",
          "164033.546000",
          "164036.046000",
          "164043.562000"
        ],
        "InstanceCreationTime": [
          "163416.046000",
          "163416.046000",
          "163417.046000",
          "163419.046000",
          "163422.046000",
          "163424.546000",
          "163427.046000",
          "163429.546000",
          "163432.046000",
          "163435.046000",
          "163437.546000",
          "163440.046000",
          "163442.546000",
          "163445.046000",
          "163448.046000",
          "163450.546000",
          "163453.046000",
          "163455.546000",
          "163458.046000",
          "163501.046000",
          "163503.546000",
          "163506.046000",
          "163508.546000",
          "163511.046000",
          "163514.046000",
          "163516.546000",
          "163519.046000",
          "163521.546000",
          "163524.046000",
          "163527.046000",
          "163529.546000",
          "163532.046000",
          "163534.546000",
          "163537.046000",
          "163540.046000",
          "163542.546000",
          "163545.046000",
          "163547.546000",
          "163550.046000",
          "163553.046000",
          "163555.546000",
          "163558.046000",
          "163600.546000",
          "163603.046000",
          "163606.046000",
          "163608.546000",
          "163611.046000",
          "163613.546000",
          "163616.046000",
          "163619.046000",
          "163621.546000",
          "163624.046000",
          "163626.546000",
          "163629.046000",
          "163632.046000",
          "163634.546000",
          "163637.046000",
          "163639.546000",
          "163642.046000",
          "163645.046000",
          "163647.546000",
          "163650.046000",
          "163652.546000",
          "163655.046000",
          "163658.046000",
          "163700.546000",
          "163703.046000",
          "163705.546000",
          "163708.046000",
          "163711.046000",
          "163713.546000",
          "163716.046000",
          "163718.546000",
          "163721.046000",
          "163724.046000",
          "163726.546000",
          "163729.046000",
          "163731.546000",
          "163734.046000",
          "163737.046000",
          "163739.546000",
          "163742.046000",
          "163744.546000",
          "163747.046000",
          "163750.046000",
          "163752.546000",
          "163755.046000",
          "163757.546000",
          "163800.046000",
          "163803.046000",
          "163805.546000",
          "163808.046000",
          "163810.546000",
          "163813.046000",
          "163816.046000",
          "163818.546000",
          "163821.046000",
          "163823.546000",
          "163826.046000",
          "163829.046000",
          "163831.546000",
          "163834.046000",
          "163836.546000",
          "163839.046000",
          "163842.046000",
          "163844.546000",
          "163847.046000",
          "163849.546000",
          "163852.046000",
          "163855.046000",
          "163857.546000",
          "163900.046000",
          "163902.546000",
          "163905.046000",
          "163908.046000",
          "163910.546000",
          "163913.046000",
          "163915.546000",
          "163918.046000",
          "163921.046000",
          "163923.546000",
          "163926.046000",
          "163928.546000",
          "163931.046000",
          "163934.046000",
          "163936.546000",
          "163939.046000",
          "163941.546000",
          "163944.046000",
          "163947.046000",
          "163949.546000",
          "163952.046000",
          "163954.546000",
          "163957.046000",
          "164000.046000",
          "164002.546000",
          "164005.046000",
          "164007.546000",
          "164010.046000",
          "164013.046000",
          "164015.546000",
          "164018.046000",
          "164020.546000",
          "164023.046000",
          "164026.046000",
          "164028.546000",
          "164031.046000",
          "164033.546000",
          "164036.046000",
          "164043.562000"
        ],
        "InstanceNumber": [
          1,
          2,
          3,
          4,
          5,
          6,
          7,
          8,
          9,
          10,
          11,
          12,
          13,
          14,
          15,
          16,
          17,
          18,
          19,
          20,
          21,
          22,
          23,
          24,
          25,
          26,
          27,
          28,
          29,
          30,
          31,
          32,
          33,
          34,
          35,
          36,
          37,
          38,
          39,
          40,
          41,
          42,
          43,
          44,
          45,
          46,
          47,
          48,
          49,
          50,
          51,
          52,
          53,
          54,
          55,
          56,
          57,
          58,
          59,
          60,
          61,
          62,
          63,
          64,
          65,
          66,
          67,
          68,
          69,
          70,
          71,
          72,
          73,
          74,
          75,
          76,
          77,
          78,
          79,
          80,
          81,
          82,
          83,
          84,
          85,
          86,
          87,
          88,
          89,
          90,
          91,
          92,
          93,
          94,
          95,
          96,
          97,
          98,
          99,
          100,
          101,
          102,
          103,
          104,
          105,
          106,
          107,
          108,
          109,
          110,
          111,
          112,
          113,
          114,
          115,
          116,
          117,
          118,
          119,
          120,
          121,
          122,
          123,
          124,
          125,
          126,
          127,
          128,
          129,
          130,
          131,
          132,
          133,
          134,
          135,
          136,
          137,
          138,
          139,
          140,
          141,
          142,
          143,
          144,
          145,
          146,
          147,
          148,
          149,
          150
        ],
        "WindowCenter": [
          825.0,
          825.0,
          825.0,
          824.0,
          824.0,
          824.0,
          824.0,
          824.0,
          824.0,
          824.0,
          824.0,
          824.0,
          825.0,
          825.0,
          825.0,
          826.0,
          825.0,
          824.0,
          823.0,
          823.0,
          824.0,
          825.0,
          825.0,
          824.0,
          824.0,
          824.0,
          825.0,
          824.0,
          823.0,
          824.0,
          825.0,
          824.0,
          824.0,
          824.0,
          824.0,
          825.0,
          825.0,
          825.0,
          824.0,
          825.0,
          825.0,
          825.0,
          825.0,
          827.0,
          826.0,
          825.0,
          825.0,
          825.0,
          826.0,
          825.0,
          825.0,
          825.0,
          826.0,
          826.0,
          826.0,
          826.0,
          825.0,
          825.0,
          825.0,
          826.0,
          826.0,
          827.0,
          826.0,
          825.0,
          825.0,
          826.0,
          827.0,
          826.0,
          827.0,
          826.0,
          826.0,
          826.0,
          827.0,
          826.0,
          826.0,
          825.0,
          825.0,
          825.0,
          826.0,
          825.0,
          826.0,
          827.0,
          826.0,
          826.0,
          826.0,
          826.0,
          826.0,
          825.0,
          825.0,
          825.0,
          826.0,
          825.0,
          825.0,
          825.0,
          826.0,
          825.0,
          825.0,
          824.0,
          824.0,
          825.0,
          826.0,
          825.0,
          825.0,
          827.0,
          827.0,
          828.0,
          827.0,
          825.0,
          825.0,
          826.0,
          826.0,
          826.0,
          826.0,
          826.0,
          827.0,
          827.0,
          827.0,
          826.0,
          826.0,
          826.0,
          826.0,
          826.0,
          826.0,
          828.0,
          827.0,
          826.0,
          826.0,
          827.0,
          827.0,
          827.0,
          827.0,
          827.0,
          827.0,
          826.0,
          827.0,
          826.0,
          826.0,
          826.0,
          827.0,
          826.0,
          828.0,
          827.0,
          825.0,
          827.0,
          827.0,
          826.0,
          825.0,
          826.0,
          826.0,
          827.0
        ],
        "WindowWidth": [
          1915.0,
          1915.0,
          1915.0,
          1913.0,
          1911.0,
          1911.0,
          1910.0,
          1912.0,
          1911.0,
          1911.0,
          1911.0,
          1913.0,
          1915.0,
          1915.0,
          1918.0,
          1920.0,
          1918.0,
          1914.0,
          1910.0,
          1910.0,
          1913.0,
          1917.0,
          1915.0,
          1913.0,
          1912.0,
          1913.0,
          1915.0,
          1912.0,
          1911.0,
          1913.0,
          1915.0,
          1913.0,
          1915.0,
          1913.0,
          1912.0,
          1916.0,
          1918.0,
          1917.0,
          1915.0,
          1919.0,
          1918.0,
          1917.0,
          1917.0,
          1926.0,
          1922.0,
          1918.0,
          1916.0,
          1916.0,
          1920.0,
          1918.0,
          1916.0,
          1918.0,
          1921.0,
          1922.0,
          1922.0,
          1922.0,
          1918.0,
          1918.0,
          1917.0,
          1922.0,
          1923.0,
          1926.0,
          1922.0,
          1918.0,
          1917.0,
          1922.0,
          1923.0,
          1922.0,
          1925.0,
          1923.0,
          1922.0,
          1920.0,
          1924.0,
          1920.0,
          1919.0,
          1915.0,
          1918.0,
          1918.0,
          1919.0,
          1917.0,
          1919.0,
          1924.0,
          1920.0,
          1919.0,
          1919.0,
          1921.0,
          1918.0,
          1914.0,
          1916.0,
          1916.0,
          1919.0,
          1916.0,
          1914.0,
          1915.0,
          1920.0,
          1917.0,
          1915.0,
          1912.0,
          1913.0,
          1916.0,
          1919.0,
          1915.0,
          1914.0,
          1922.0,
          1925.0,
          1928.0,
          1922.0,
          1917.0,
          1916.0,
          1918.0,
          1919.0,
          1920.0,
          1920.0,
          1920.0,
          1921.0,
          1922.0,
          1923.0,
          1920.0,
          1921.0,
          1920.0,
          1919.0,
          1919.0,
          1919.0,
          1925.0,
          1923.0,
          1918.0,
          1919.0,
          1922.0,
          1923.0,
          1921.0,
          1922.0,
          1924.0,
          1922.0,
          1921.0,
          1922.0,
          1921.0,
          1918.0,
          1921.0,
          1923.0,
          1922.0,
          1929.0,
          1924.0,
          1918.0,
          1923.0,
          1925.0,
          1921.0,
          1918.0,
          1920.0,
          1921.0,
          1923.0
        ]
      },
      "slices": {}
    }
  },
  "dummy_trs": 0,
  "dvars_nstd": 76.07294392422814,
  "dvars_std": 1.084317550872483,
  "dvars_vstd": 1.0103209152348998,
  "efc": 0.5335029547971298,
  "fber": 415.740478515625,
  "fd_mean": 0.06583128665811633,
  "fd_num": 2,
  "fd_perc": 1.3333333333333333,
  "fwhm_avg": 2.98453519503956,
  "fwhm_x": 2.951408219711257,
  "fwhm_y": 2.9763957914278345,
  "fwhm_z": 3.0258015739795896,
  "gcor": 0.00269036,
  "gsr_x": -0.003928041085600853,
  "gsr_y": 0.05077070742845535,
  "provenance": {
    "md5sum": "05a921a61fad51b8d91315d2b9aae395",
    "settings": {
      "fd_thres": 0.2,
      "testing": false
    },
    "software": "mriqc",
    "version": "22.0.6",
    "webapi_port": null,
    "webapi_url": "https://mriqc.nimh.nih.gov/api/v1"
  },
  "size_t": 150,
  "size_x": 188,
  "size_y": 188,
  "size_z": 46,
  "snr": 2.3019057163883114,
  "spacing_tr": 2.5999999046325684,
  "spacing_x": 1.0957447290420532,
  "spacing_y": 1.0957447290420532,
  "spacing_z": 1.0999994277954102,
  "summary_bg_k": 81.31914128904222,
  "summary_bg_mad": 21.023299910863727,
  "summary_bg_mean": 80.16475677490234,
  "summary_bg_median": 45.7933349609375,
  "summary_bg_n": 1126963.0,
  "summary_bg_p05": 29.96666717529297,
