{
  "aor": 0.0006526845637583893,
  "aqi": 0.013273357718120805,
  "bids_meta": {
    "AcquisitionMatrixPE": 188,
    "AcquisitionNumber": 1,
    "AcquisitionTime": "20:04:26.995000",
    "BandwidthPerPixelPhaseEncode": 19.46,
    "BaseResolution": 188,
    "ConversionSoftware": "dcm2niix",
    "ConversionSoftwareVersion": "v1.0.20180606 GCC4.8.5",
    "DelayTime": 1.2,
    "DerivedVendorReportedEchoSpacing": 0.000820013,
    "DeviceSerialNumber": "18930",
    "DwellTime": 1.9e-06,
    "EchoTime": 0.02,
    "EffectiveEchoSpacing": 0.000273338,
    "FlipAngle": 80,
    "ImageComments": "Unaliased_MB2_PE2",
    "ImageOrientationPatientDICOM": [
      0.999248,
      0.020497,
      -0.0329253,
      -0.0374194,
      0.286299,
      -0.957409
    ],
    "ImageType": [
      "ORIGINAL",
      "PRIMARY",
      "M",
      "MB",
      "ND",
      "MOSAIC"
    ],
    "InPlanePhaseEncodingDirectionDICOM": "COL",
    "InstitutionAddress": "Oxfordlaan_55_Maastricht_753AAF_Limburg_NL_6229_EV",
    "InstitutionName": "Scannexus",
    "InstitutionalDepartmentName": "MRI_7T",
    "MRAcquisitionType": "2D",
    "MagneticFieldStrength": 6.98,
    "Manufacturer": "Siemens",
    "ManufacturersModelName": "Investigational_Device_7T",
    "Modality": "MR",
    "MultibandAccelerationFactor": 2,
    "ParallelReductionFactorInPlane": 3,
    "PartialFourier": 0.75,
    "PatientPosition": "HFS",
    "PercentPhaseFOV": 100,
    "PhaseEncodingDirection": "j",
    "PhaseEncodingSteps": 141,
    "PhaseResolution": 1,
    "PixelBandwidth": 1400,
    "ProcedureStepDescription": "FeDem_Faruk",
    "ProtocolName": "cmrr_mbep2d_bold_AP_run12",
    "PulseSequenceDetails": "%CustomerSeq%_cmrr_mbep2d_bold",
    "ReceiveCoilName": "32Ch_Head_7T",
    "ReconMatrixPE": 188,
    "RepetitionTime": 2.6,
    "SAR": 0.0591123,
    "ScanOptions": "PFP_FS",
    "ScanningSequence": "EP",
    "SequenceName": "epfid2d1_188",
    "SequenceVariant": "SK_SS",
    "SeriesDescription": "cmrr_mbep2d_bold_AP_run12",
    "SeriesNumber": 25,
    "ShimSetting": [
      117,
      -256,
      552,
      270,
      8,
      -144,
      276,
      73
    ],
    "SliceThickness": 1.1,
    "SliceTiming": [
      0,
      0.7325,
      0.06,
      0.795,
      0.1225,
      0.855,
      0.1825,
      0.915,
      0.245,
      0.9775,
      0.305,
      1.0375,
      0.3675,
      1.1,
      0.4275,
      1.16,
      0.4875,
      1.2225,
      0.55,
      1.2825,
      0.61,
      1.345,
      0.6725,
      0,
      0.7325,
      0.06,
      0.795,
      0.1225,
      0.855,
      0.1825,
      0.915,
      0.245,
      0.9775,
      0.305,
      1.0375,
      0.3675,
      1.1,
      0.4275,
      1.16,
      0.4875,
      1.2225,
      0.55,
      1.2825,
      0.61,
      1.345,
      0.6725
    ],
    "SoftwareVersions": "syngo_MR_B17",
    "SpacingBetweenSlices": 1.1,
    "StationName": "MRC18930",
    "TaskName": "auditory",
    "TotalReadoutTime": 0.0511141,
    "TxRefAmp": 210,
    "dataset": "ds001942",
    "dcmmeta_affine": [
      [
        -1.09492027759552,
        -0.04100212827324867,
        0.011217254213988781,
        102.66847229003906
      ],
      [
        -0.02245943620800972,
        0.31371042132377625,
        -1.0537132024765015,
        22.232385635375977
      ],
      [
        -0.03607774153351784,
        1.0490763187408447,
        0.31553545594215393,
        -109.380859375
      ],
      [
        0.0,
        0.0,
        0.0,
        1.0
      ]
    ],
    "dcmmeta_reorient_transform": [
      [
        0.0,
        -1.0,
        0.0,
        187.0
      ],
      [
        1.0,
        0.0,
        0.0,
        0.0
      ],
      [
        0.0,
        0.0,
        1.0,
        0.0
      ],
      [
        0.0,
        0.0,
        0.0,
        1.0
      ]
    ],
    "dcmmeta_shape": [
      188,
      188,
      46,
      150
    ],
    "dcmmeta_slice_dim": 2,
    "dcmmeta_version": 0.6,
    "global": {
      "const": {
        "AcquisitionMatrix": [
          188,
          0,
          0,
          188
        ],
        "AngioFlag": "N",
        "BitsAllocated": 16,
        "BitsStored": 12,
        "Columns": 1316,
        "EchoNumbers": 1,
        "EchoTime": 20.0,
        "EchoTrainLength": 1,
        "FlipAngle": 80.0,
        "HighBit": 11,
        "ImageOrientationPatient": [
          0.99924761605585,
          0.02049696029164,
          -0.0329253158756,
          -0.0374194164785,
          0.28629882111884,
          -0.9574094068351
        ],
        "ImagePositionPatient": [
          -689.41092549423,
          -270.49603658848,
          698.82329381524
        ],
        "ImageType": [
          "ORIGINAL",
          "PRIMARY",
          "M",
          "MB",
          "ND",
          "MOSAIC"
        ],
        "ImagedNucleus": "1H",
        "ImagingFrequency": 297.205533,
        "InPlanePhaseEncodingDirection": "COL",
        "LargestImagePixelValue": 4095,
        "MRAcquisitionType": "2D",
        "MagneticFieldStrength": 6.98,
        "Manufacturer": "SIEMENS",
        "ManufacturerModelName": "Investigational_Device_7T",
        "Modality": "MR",
        "NumberOfAverages": 1.0,
        "NumberOfPhaseEncodingSteps": 141,
        "PercentPhaseFieldOfView": 100.0,
        "PercentSampling": 100.0,
        "PerformedProcedureStepStartTime": "181136.593000",
        "PhotometricInterpretation": "MONOCHROME2",
        "PixelBandwidth": 1400.0,
        "PixelRepresentation": 0,
        "PixelSpacing": [
          1.0957447290421,
          1.0957447290421
        ],
        "ProtocolName": "cmrr_mbep2d_bold_AP_run12",
        "RepetitionTime": 2600.0,
        "Rows": 1316,
        "SAR": 0.05911229230388,
        "SamplesPerPixel": 1,
        "ScanOptions": [
          "PFP",
          "FS"
        ],
        "ScanningSequence": "EP",
        "SequenceName": "epfid2d1_188",
        "SequenceVariant": [
          "SK",
          "SS"
        ],
        "SeriesDescription": "cmrr_mbep2d_bold_AP_run12",
        "SeriesNumber": 25,
        "SeriesTime": "200437.203000",
        "SliceLocation": -51.625853746699,
        "SliceThickness": 1.1000000238419,
        "SmallestImagePixelValue": 0,
        "SoftwareVersions": "syngo MR B17",
        "SpacingBetweenSlices": 1.1000000357126,
        "SpecificCharacterSet": "ISO_IR 100",
        "StudyID": "1",
        "StudyTime": "181136.484000",
        "TransmitCoilName": "32Ch_Head_7T",
        "VariableFlipAngleFlag": "N",
        "WindowCenterWidthExplanation": "Algo1",
        "dBdt": 0.0
      },
      "slices": {}
    },
    "modality": "bold",
    "run_id": 12,
    "session_id": "SES03",
    "subject_id": "S06",
    "task_id": "auditory",
    "time": {
      "samples": {
        "AcquisitionNumber": [
          1,
          2,
          3,
          4,
          5,
          6,
          7,
          8,
          9,
          10,
          11,
          12,
          13,
          14,
          15,
          16,
          17,
          18,
          19,
          20,
          21,
          22,
          23,
          24,
          25,
          26,
          27,
          28,
          29,
          30,
          31,
          32,
          33,
          34,
          35,
          36,
          37,
          38,
          39,
          40,
          41,
          42,
          43,
          44,
          45,
          46,
          47,
          48,
          49,
          50,
          51,
          52,
          53,
          54,
          55,
          56,
          57,
          58,
          59,
          60,
          61,
          62,
          63,
          64,
          65,
          66,
          67,
          68,
          69,
          70,
          71,
          72,
          73,
          74,
          75,
          76,
          77,
          78,
          79,
          80,
          81,
          82,
          83,
          84,
          85,
          86,
          87,
          88,
          89,
          90,
          91,
          92,
          93,
          94,
          95,
          96,
          97,
          98,
          99,
          100,
          101,
          102,
          103,
          104,
          105,
          106,
          107,
          108,
          109,
          110,
          111,
          112,
          113,
          114,
          115,
          116,
          117,
          118,
          119,
          120,
          121,
          122,
          123,
          124,
          125,
          126,
          127,
          128,
          129,
          130,
          131,
          132,
          133,
          134,
          135,
          136,
          137,
          138,
          139,
          140,
          141,
          142,
          143,
          144,
          145,
          146,
          147,
          148,
          149,
          150
        ],
        "AcquisitionTime": [
          "200426.995000",
          "200429.605000",
          "200432.215000",
          "200434.825000",
          "200437.437500",
          "200440.047500",
          "200442.657500",
          "200445.267500",
          "200447.877500",
          "200450.487500",
          "200453.100000",
          "200455.710000",
          "200458.320000",
          "200500.930000",
          "200503.540000",
          "200506.152500",
          "200508.762500",
          "200511.372500",
          "200513.982500",
          "200516.592500",
          "200519.202500",
          "200521.815000",
          "200524.425000",
          "200527.035000",
          "200529.645000",
          "200532.255000",
          "200534.865000",
          "200537.477500",
          "200540.087500",
          "200542.697500",
          "200545.307500",
          "200547.917500",
          "200550.530000",
          "200553.140000",
          "200555.750000",
          "200558.360000",
          "200600.970000",
          "200603.580000",
          "200606.192500",
          "200608.802500",
          "200611.412500",
          "200614.022500",
          "200616.632500",
          "200619.242500",
          "200621.855000",
          "200624.465000",
          "200627.075000",
          "200629.685000",
          "200632.295000",
          "200634.907500",
          "200637.517500",
          "200640.127500",
          "200642.737500",
          "200645.347500",
          "200647.957500",
          "200650.570000",
          "200653.180000",
          "200655.790000",
          "200658.400000",
          "200701.010000",
          "200703.620000",
          "200706.232500",
          "200708.842500",
          "200711.452500",
          "200714.062500",
          "200716.672500",
          "200719.285000",
          "200721.895000",
          "200724.505000",
          "200727.115000",
          "200729.725000",
          "200732.335000",
          "200734.947500",
          "200737.557500",
          "200740.167500",
          "200742.777500",
          "200745.387500",
          "200747.997500",
          "200750.610000",
          "200753.220000",
          "200755.830000",
          "200758.440000",
          "200801.050000",
          "200803.662500",
          "200806.272500",
          "200808.882500",
          "200811.492500",
          "200814.102500",
          "200816.712500",
          "200819.325000",
          "200821.935000",
          "200824.545000",
          "200827.155000",
          "200829.765000",
          "200832.375000",
          "200834.987500",
          "200837.597500",
          "200840.207500",
          "200842.817500",
          "200845.427500",
          "200848.040000",
          "200850.650000",
          "200853.260000",
          "200855.870000",
          "200858.480000",
          "200901.090000",
          "200903.702500",
          "200906.312500",
          "200908.922500",
          "200911.532500",
          "200914.142500",
          "200916.752500",
          "200919.365000",
          "200921.975000",
          "200924.585000",
          "200927.195000",
          "200929.805000",
          "200932.417500",
          "200935.027500",
          "200937.637500",
          "200940.247500",
          "200942.857500",
          "200945.467500",
          "200948.080000",
          "200950.690000",
          "200953.300000",
          "200955.910000",
          "200958.520000",
          "201001.130000",
          "201003.742500",
          "201006.352500",
          "201008.962500",
          "201011.572500",
          "201014.182500",
          "201016.795000",
          "201019.405000",
          "201022.015000",
          "201024.625000",
          "201027.235000",
          "201029.845000",
          "201032.457500",
          "201035.067500",
          "201037.677500",
          "201040.287500",
          "201042.897500",
          "201045.507500",
          "201048.120000",
          "201050.730000",
          "201053.340000",
          "201055.950000"
        ],
        "ContentTime": [
          "200437.218000",
          "200437.218000",
          "200438.203000",
          "200440.203000",
          "200443.203000",
          "200445.703000",
          "200448.203000",
          "200450.703000",
          "200453.203000",
          "200456.203000",
          "200458.703000",
          "200501.203000",
          "200503.703000",
          "200506.203000",
          "200509.203000",
          "200511.703000",
          "200514.203000",
          "200516.703000",
          "200519.203000",
          "200522.203000",
          "200524.703000",
          "200527.203000",
          "200529.703000",
          "200532.203000",
          "200535.203000",
          "200537.703000",
          "200540.203000",
          "200542.703000",
          "200545.203000",
          "200548.203000",
          "200550.703000",
          "200553.203000",
          "200555.703000",
          "200558.203000",
          "200601.203000",
          "200603.703000",
          "200606.203000",
          "200608.703000",
          "200611.203000",
          "200614.203000",
          "200616.703000",
          "200619.203000",
          "200621.703000",
          "200624.203000",
          "200627.203000",
          "200629.703000",
          "200632.203000",
          "200634.703000",
          "200637.203000",
          "200640.203000",
          "200642.703000",
          "200645.203000",
          "200647.703000",
          "200650.203000",
          "200653.203000",
          "200655.703000",
          "200658.203000",
          "200700.703000",
          "200703.703000",
          "200706.203000",
          "200708.703000",
          "200711.203000",
          "200713.703000",
          "200716.203000",
          "200719.203000",
          "200721.703000",
          "200724.203000",
          "200726.703000",
          "200729.203000",
          "200732.203000",
          "200734.703000",
          "200737.203000",
          "200739.703000",
          "200742.703000",
          "200745.203000",
          "200747.703000",
          "200750.203000",
          "200752.703000",
          "200755.703000",
          "200758.203000",
          "200800.703000",
          "200803.203000",
          "200805.703000",
          "200808.703000",
          "200811.203000",
          "200813.703000",
          "200816.203000",
          "200818.703000",
          "200821.703000",
          "200824.203000",
          "200826.703000",
          "200829.203000",
          "200831.703000",
          "200834.203000",
          "200837.203000",
          "200839.703000",
          "200842.203000",
          "200844.703000",
          "200847.703000",
          "200850.203000",
          "200852.703000",
          "200855.203000",
          "200857.703000",
          "200900.203000",
          "200903.203000",
          "200905.703000",
          "200908.203000",
          "200910.703000",
          "200913.203000",
          "200916.203000",
          "200918.703000",
          "200921.203000",
          "200923.703000",
          "200926.203000",
          "200929.203000",
          "200931.703000",
          "200934.203000",
          "200936.703000",
          "200939.203000",
          "200942.203000",
          "200944.703000",
          "200947.203000",
          "200949.703000",
          "200952.203000",
          "200955.203000",
          "200957.703000",
          "201000.203000",
          "201002.703000",
          "201005.203000",
          "201008.203000",
          "201010.703000",
          "201013.203000",
          "201015.703000",
          "201018.203000",
          "201021.203000",
          "201023.703000",
          "201026.203000",
          "201028.703000",
          "201031.703000",
          "201034.203000",
          "201036.703000",
          "201039.203000",
          "201041.703000",
          "201044.203000",
          "201047.203000",
          "201049.703000",
          "201052.203000",
          "201054.703000",
          "201057.703000",
          "201104.765000"
        ],
        "InstanceCreationTime": [
          "200437.218000",
          "200437.218000",
          "200438.203000",
          "200440.203000",
          "200443.203000",
          "200445.703000",
          "200448.203000",
          "200450.703000",
          "200453.203000",
          "200456.203000",
          "200458.703000",
          "200501.203000",
          "200503.703000",
          "200506.203000",
          "200509.203000",
          "200511.703000",
          "200514.203000",
          "200516.703000",
          "200519.203000",
          "200522.203000",
          "200524.703000",
          "200527.203000",
          "200529.703000",
          "200532.203000",
          "200535.203000",
          "200537.703000",
          "200540.203000",
          "200542.703000",
          "200545.203000",
          "200548.203000",
          "200550.703000",
          "200553.203000",
          "200555.703000",
          "200558.203000",
          "200601.203000",
          "200603.703000",
          "200606.203000",
          "200608.703000",
          "200611.203000",
          "200614.203000",
          "200616.703000",
          "200619.203000",
          "200621.703000",
          "200624.203000",
          "200627.203000",
          "200629.703000",
          "200632.203000",
          "200634.703000",
          "200637.203000",
          "200640.203000",
          "200642.703000",
          "200645.203000",
          "200647.703000",
          "200650.203000",
          "200653.203000",
          "200655.703000",
          "200658.203000",
          "200700.703000",
          "200703.703000",
          "200706.203000",
          "200708.703000",
          "200711.203000",
          "200713.703000",
          "200716.203000",
          "200719.203000",
          "200721.703000",
          "200724.203000",
          "200726.703000",
          "200729.203000",
          "200732.203000",
          "200734.703000",
          "200737.203000",
          "200739.703000",
          "200742.703000",
          "200745.203000",
          "200747.703000",
          "200750.203000",
          "200752.703000",
          "200755.703000",
          "200758.203000",
          "200800.703000",
          "200803.203000",
          "200805.703000",
          "200808.703000",
          "200811.203000",
          "200813.703000",
          "200816.203000",
          "200818.703000",
          "200821.703000",
          "200824.203000",
          "200826.703000",
          "200829.203000",
          "200831.703000",
          "200834.203000",
          "200837.203000",
          "200839.703000",
          "200842.203000",
          "200844.703000",
          "200847.703000",
          "200850.203000",
          "200852.703000",
          "200855.203000",
          "200857.703000",
          "200900.203000",
          "200903.203000",
          "200905.703000",
          "200908.203000",
          "200910.703000",
          "200913.203000",
          "200916.203000",
          "200918.703000",
          "200921.203000",
          "200923.703000",
          "200926.203000",
          "200929.203000",
          "200931.703000",
          "200934.203000",
          "200936.703000",
          "200939.203000",
          "200942.203000",
          "200944.703000",
          "200947.203000",
          "200949.703000",
          "200952.203000",
          "200955.203000",
          "200957.703000",
          "201000.203000",
          "201002.703000",
          "201005.203000",
          "201008.203000",
          "201010.703000",
          "201013.203000",
          "201015.703000",
          "201018.203000",
          "201021.203000",
          "201023.703000",
          "201026.203000",
          "201028.703000",
          "201031.703000",
          "201034.203000",
          "201036.703000",
          "201039.203000",
          "201041.703000",
          "201044.203000",
          "201047.203000",
          "201049.703000",
          "201052.203000",
          "201054.703000",
          "201057.703000",
          "201104.765000"
        ],
        "InstanceNumber": [
          1,
          2,
          3,
          4,
          5,
          6,
          7,
          8,
          9,
          10,
          11,
          12,
          13,
          14,
          15,
          16,
          17,
          18,
          19,
          20,
          21,
          22,
          23,
          24,
          25,
          26,
          27,
          28,
          29,
          30,
          31,
          32,
          33,
          34,
          35,
          36,
          37,
          38,
          39,
          40,
          41,
          42,
          43,
          44,
          45,
          46,
          47,
          48,
          49,
          50,
          51,
          52,
          53,
          54,
          55,
          56,
          57,
          58,
          59,
          60,
          61,
          62,
          63,
          64,
          65,
          66,
          67,
          68,
          69,
          70,
          71,
          72,
          73,
          74,
          75,
          76,
          77,
          78,
          79,
          80,
          81,
          82,
          83,
          84,
          85,
          86,
          87,
          88,
          89,
          90,
          91,
          92,
          93,
          94,
          95,
          96,
          97,
          98,
          99,
          100,
          101,
          102,
          103,
          104,
          105,
          106,
          107,
          108,
          109,
          110,
          111,
          112,
          113,
          114,
          115,
          116,
          117,
          118,
          119,
          120,
          121,
          122,
          123,
          124,
          125,
          126,
          127,
          128,
          129,
          130,
          131,
          132,
          133,
          134,
          135,
          136,
          137,
          138,
          139,
          140,
          141,
          142,
          143,
          144,
          145,
          146,
          147,
          148,
          149,
          150
        ],
        "WindowCenter": [
          864.0,
          862.0,
          861.0,
          861.0,
          862.0,
          862.0,
          862.0,
          862.0,
          861.0,
          861.0,
          861.0,
          861.0,
          861.0,
          860.0,
          861.0,
          861.0,
          861.0,
          861.0,
          860.0,
          860.0,
          860.0,
          861.0,
          860.0,
          860.0,
          860.0,
          860.0,
          860.0,
          860.0,
          860.0,
          860.0,
          859.0,
          860.0,
          860.0,
          861.0,
          862.0,
          860.0,
          861.0,
          860.0,
          861.0,
          860.0,
          861.0,
          862.0,
          861.0,
          860.0,
          860.0,
          860.0,
          860.0,
          860.0,
          860.0,
          860.0,
          860.0,
          860.0,
          860.0,
          862.0,
          862.0,
          860.0,
          860.0,
          860.0,
          861.0,
          860.0,
          860.0,
          861.0,
          860.0,
          860.0,
          859.0,
          860.0,
          859.0,
          860.0,
          861.0,
          861.0,
          860.0,
          860.0,
          860.0,
          861.0,
          860.0,
          860.0,
          860.0,
          860.0,
          860.0,
          859.0,
          860.0,
          860.0,
          861.0,
          861.0,
          861.0,
          862.0,
          862.0,
          862.0,
          862.0,
          861.0,
          861.0,
          860.0,
          860.0,
          861.0,
          860.0,
          860.0,
          861.0,
          861.0,
          860.0,
          861.0,
          861.0,
          861.0,
          861.0,
          861.0,
          861.0,
          860.0,
          860.0,
          860.0,
          860.0,
          860.0,
          861.0,
          861.0,
          860.0,
          861.0,
          860.0,
          860.0,
          860.0,
          860.0,
          860.0,
          861.0,
          860.0,
          860.0,
          861.0,
          860.0,
          862.0,
          862.0,
          860.0,
          858.0,
          859.0,
          859.0,
          860.0,
          860.0,
          861.0,
          860.0,
          861.0,
          861.0,
          862.0,
          862.0,
          861.0,
          860.0,
          861.0,
          861.0,
          861.0,
          860.0,
          861.0,
          862.0,
          863.0,
          863.0,
          862.0,
          862.0
        ],
        "WindowWidth": [
          1958.0,
          1953.0,
          1950.0,
          1951.0,
          1951.0,
          1952.0,
          1952.0,
          1952.0,
          1950.0,
          1950.0,
          1948.0,
          1948.0,
          1949.0,
          1948.0,
          1952.0,
          1949.0,
          1950.0,
          1948.0,
          1947.0,
          1947.0,
          1947.0,
          1950.0,
          1946.0,
          1947.0,
          1945.0,
          1946.0,
          1946.0,
          1945.0,
          1948.0,
          1945.0,
          1944.0,
          1947.0,
          1948.0,
          1949.0,
          1953.0,
          1947.0,
          1949.0,
          1947.0,
          1948.0,
          1946.0,
          1949.0,
          1952.0,
          1949.0,
          1948.0,
          1946.0,
          1946.0,
          1947.0,
          1947.0,
          1947.0,
          1946.0,
          1947.0,
          1947.0,
          1947.0,
          1952.0,
          1951.0,
          1947.0,
          1946.0,
          1947.0,
          1949.0,
          1946.0,
          1945.0,
          1947.0,
          1946.0,
          1946.0,
          1943.0,
          1946.0,
          1944.0,
          1947.0,
          1948.0,
          1950.0,
          1947.0,
          1947.0,
          1948.0,
          1950.0,
          1946.0,
          1946.0,
          1947.0,
          1946.0,
          1944.0,
          1944.0,
          1945.0,
          1948.0,
          1950.0,
          1950.0,
          1948.0,
          1953.0,
          1953.0,
          1953.0,
          1953.0,
          1949.0,
          1950.0,
          1947.0,
          1947.0,
          1949.0,
          1946.0,
          1946.0,
          1948.0,
          1948.0,
          1946.0,
          1949.0,
          1948.0,
          1950.0,
          1948.0,
          1950.0,
          1949.0,
          1948.0,
          1946.0,
          1945.0,
          1946.0,
          1947.0,
          1948.0,
          1948.0,
          1946.0,
          1948.0,
          1945.0,
          1947.0,
          1944.0,
          1946.0,
          1947.0,
          1949.0,
          1946.0,
          1948.0,
          1952.0,
          1945.0,
          1953.0,
          1952.0,
          1946.0,
          1939.0,
          1942.0,
          1943.0,
          1946.0,
          1947.0,
          1948.0,
          1947.0,
          1949.0,
          1950.0,
          1952.0,
          1952.0,
          1949.0,
          1947.0,
          1949.0,
          1951.0,
          1949.0,
          1947.0,
          1950.0,
          1953.0,
          1955.0,
          1955.0,
          1952.0,
          1950.0
        ]
      },
      "slices": {}
    }
  },
  "dummy_trs": 1,
  "dvars_nstd": 78.48790024398647,
  "dvars_std": 1.073488996418919,
  "dvars_vstd": 1.008626849054054,
  "efc": 0.5788397129358589,
  "fber": 250.28355407714844,
  "fd_mean": 0.04819184840255968,
  "fd_num": 1,
  "fd_perc": 0.6711409395973155,
  "fwhm_avg": 2.8958476636218227,
  "fwhm_x": 2.5420519270351867,
  "fwhm_y": 2.9187911337671197,
  "fwhm_z": 3.2266999300631625,
  "gcor": 0.0010286,
  "gsr_x": -0.031966760754585266,
  "gsr_y": 0.0630604550242424,
  "provenance": {
    "md5sum": "acc9e2e35f0804613bd1deaf046d2ac3",
    "settings": {
      "fd_thres": 0.2,
      "testing": false
    },
    "software": "mriqc",
    "version": "23.0.1",
    "webapi_port": null,
    "webapi_url": "https://mriqc.nimh.nih.gov/api/v1"
  },
  "size_t": 149,
  "size_x": 188,
  "size_y": 188,
  "size_z": 46,
  "snr": 2.0859469276954914,
  "spacing_tr": 2.5999999046325684,
  "spacing_x": 1.0957447290420532,
  "spacing_y": 1.0957447290420532,
  "spacing_z": 1.100000023841858,
  "summary_bg_k": 27.33122355819891,
  "summary_bg_mad": 29.572440693409668,
  "summary_bg_mean": 89.3805923461914,
  "summary_bg_median": 55.825504302978516,
  "summary_bg_n": 1029693.0,
  "summary_bg_p05": 31.946308135986328,
  "summary_bg_p95": 265.85906982421875,
