{
  "aor": 0.0006108,
  "aqi": 0.013674684666666668,
  "bids_meta": {
    "AcquisitionMatrixPE": 188,
    "AcquisitionNumber": 1,
    "AcquisitionTime": "19:56:46.015000",
    "BandwidthPerPixelPhaseEncode": 19.46,
    "BaseResolution": 188,
    "ConversionSoftware": "dcm2niix",
    "ConversionSoftwareVersion": "v1.0.20180606 GCC4.8.5",
    "DelayTime": 1.2,
    "DerivedVendorReportedEchoSpacing": 0.000820013,
    "DeviceSerialNumber": "18930",
    "DwellTime": 1.9e-06,
    "EchoTime": 0.02,
    "EffectiveEchoSpacing": 0.000273338,
    "FlipAngle": 80,
    "ImageComments": "Unaliased_MB2_PE2",
    "ImageOrientationPatientDICOM": [
      0.999248,
      0.020497,
      -0.0329253,
      -0.0374194,
      0.286299,
      -0.957409
    ],
    "ImageType": [
      "ORIGINAL",
      "PRIMARY",
      "M",
      "MB",
      "ND",
      "MOSAIC"
    ],
    "InPlanePhaseEncodingDirectionDICOM": "COL",
    "InstitutionAddress": "Oxfordlaan_55_Maastricht_753AAF_Limburg_NL_6229_EV",
    "InstitutionName": "Scannexus",
    "InstitutionalDepartmentName": "MRI_7T",
    "MRAcquisitionType": "2D",
    "MagneticFieldStrength": 6.98,
    "Manufacturer": "Siemens",
    "ManufacturersModelName": "Investigational_Device_7T",
    "Modality": "MR",
    "MultibandAccelerationFactor": 2,
    "ParallelReductionFactorInPlane": 3,
    "PartialFourier": 0.75,
    "PatientPosition": "HFS",
    "PercentPhaseFOV": 100,
    "PhaseEncodingDirection": "j",
    "PhaseEncodingSteps": 141,
    "PhaseResolution": 1,
    "PixelBandwidth": 1400,
    "ProcedureStepDescription": "FeDem_Faruk",
    "ProtocolName": "cmrr_mbep2d_bold_AP_run11",
    "PulseSequenceDetails": "%CustomerSeq%_cmrr_mbep2d_bold",
    "ReceiveCoilName": "32Ch_Head_7T",
    "ReconMatrixPE": 188,
    "RepetitionTime": 2.6,
    "SAR": 0.0592779,
    "ScanOptions": "PFP_FS",
    "ScanningSequence": "EP",
    "SequenceName": "epfid2d1_188",
    "SequenceVariant": "SK_SS",
    "SeriesDescription": "cmrr_mbep2d_bold_AP_run11",
    "SeriesNumber": 24,
    "ShimSetting": [
      117,
      -256,
      552,
      270,
      8,
      -144,
      276,
      73
    ],
    "SliceThickness": 1.1,
    "SliceTiming": [
      0,
      0.7325,
      0.06,
      0.795,
      0.1225,
      0.855,
      0.1825,
      0.9175,
      0.245,
      0.9775,
      0.305,
      1.0375,
      0.3675,
      1.1,
      0.4275,
      1.16,
      0.4875,
      1.2225,
      0.55,
      1.2825,
      0.61,
      1.345,
      0.6725,
      0,
      0.7325,
      0.06,
      0.795,
      0.1225,
      0.855,
      0.1825,
      0.9175,
      0.245,
      0.9775,
      0.305,
      1.0375,
      0.3675,
      1.1,
      0.4275,
      1.16,
      0.4875,
      1.2225,
      0.55,
      1.2825,
      0.61,
      1.345,
      0.6725
    ],
    "SoftwareVersions": "syngo_MR_B17",
    "SpacingBetweenSlices": 1.1,
    "StationName": "MRC18930",
    "TaskName": "auditory",
    "TotalReadoutTime": 0.0511141,
    "TxRefAmp": 210,
    "dataset": "ds001942",
    "dcmmeta_affine": [
      [
        -1.09492027759552,
        -0.04100212827324867,
        0.011217254213988781,
        102.66847229003906
      ],
      [
        -0.02245943620800972,
        0.31371042132377625,
        -1.0537132024765015,
        22.232385635375977
      ],
      [
        -0.03607774153351784,
        1.0490763187408447,
        0.31553545594215393,
        -109.380859375
      ],
      [
        0.0,
        0.0,
        0.0,
        1.0
      ]
    ],
    "dcmmeta_reorient_transform": [
      [
        0.0,
        -1.0,
        0.0,
        187.0
      ],
      [
        1.0,
        0.0,
        0.0,
        0.0
      ],
      [
        0.0,
        0.0,
        1.0,
        0.0
      ],
      [
        0.0,
        0.0,
        0.0,
        1.0
      ]
    ],
    "dcmmeta_shape": [
      188,
      188,
      46,
      150
    ],
    "dcmmeta_slice_dim": 2,
    "dcmmeta_version": 0.6,
    "global": {
      "const": {
        "AcquisitionMatrix": [
          188,
          0,
          0,
          188
        ],
        "AngioFlag": "N",
        "BitsAllocated": 16,
        "BitsStored": 12,
        "Columns": 1316,
        "EchoNumbers": 1,
        "EchoTime": 20.0,
        "EchoTrainLength": 1,
        "FlipAngle": 80.0,
        "HighBit": 11,
        "ImageOrientationPatient": [
          0.99924761605585,
          0.02049696029164,
          -0.0329253158756,
          -0.0374194164785,
          0.28629882111884,
          -0.9574094068351
        ],
        "ImagePositionPatient": [
          -689.41092549423,
          -270.49603658848,
          698.82329381524
        ],
        "ImageType": [
          "ORIGINAL",
          "PRIMARY",
          "M",
          "MB",
          "ND",
          "MOSAIC"
        ],
        "ImagedNucleus": "1H",
        "ImagingFrequency": 297.20553,
        "InPlanePhaseEncodingDirection": "COL",
        "LargestImagePixelValue": 4095,
        "MRAcquisitionType": "2D",
        "MagneticFieldStrength": 6.98,
        "Manufacturer": "SIEMENS",
        "ManufacturerModelName": "Investigational_Device_7T",
        "Modality": "MR",
        "NumberOfAverages": 1.0,
        "NumberOfPhaseEncodingSteps": 141,
        "PercentPhaseFieldOfView": 100.0,
        "PercentSampling": 100.0,
        "PerformedProcedureStepStartTime": "181136.593000",
        "PhotometricInterpretation": "MONOCHROME2",
        "PixelBandwidth": 1400.0,
        "PixelRepresentation": 0,
        "PixelSpacing": [
          1.0957447290421,
          1.0957447290421
        ],
        "ProtocolName": "cmrr_mbep2d_bold_AP_run11",
        "RepetitionTime": 2600.0,
        "Rows": 1316,
        "SAR": 0.05927786022129,
        "SamplesPerPixel": 1,
        "ScanOptions": [
          "PFP",
          "FS"
        ],
        "ScanningSequence": "EP",
        "SequenceName": "epfid2d1_188",
        "SequenceVariant": [
          "SK",
          "SS"
        ],
        "SeriesDescription": "cmrr_mbep2d_bold_AP_run11",
        "SeriesNumber": 24,
        "SeriesTime": "195655.296000",
        "SliceLocation": -51.625853746699,
        "SliceThickness": 1.1000000238419,
        "SmallestImagePixelValue": 0,
        "SoftwareVersions": "syngo MR B17",
        "SpacingBetweenSlices": 1.1000000357126,
        "SpecificCharacterSet": "ISO_IR 100",
        "StudyID": "1",
        "StudyTime": "181136.484000",
        "TransmitCoilName": "32Ch_Head_7T",
        "VariableFlipAngleFlag": "N",
        "WindowCenterWidthExplanation": "Algo1",
        "dBdt": 0.0
      },
      "slices": {}
    },
    "modality": "bold",
    "run_id": 11,
    "session_id": "SES03",
    "subject_id": "S06",
    "task_id": "auditory",
    "time": {
      "samples": {
        "AcquisitionNumber": [
          1,
          2,
          3,
          4,
          5,
          6,
          7,
          8,
          9,
          10,
          11,
          12,
          13,
          14,
          15,
          16,
          17,
          18,
          19,
          20,
          21,
          22,
          23,
          24,
          25,
          26,
          27,
          28,
          29,
          30,
          31,
          32,
          33,
          34,
          35,
          36,
          37,
          38,
          39,
          40,
          41,
          42,
          43,
          44,
          45,
          46,
          47,
          48,
          49,
          50,
          51,
          52,
          53,
          54,
          55,
          56,
          57,
          58,
          59,
          60,
          61,
          62,
          63,
          64,
          65,
          66,
          67,
          68,
          69,
          70,
          71,
          72,
          73,
          74,
          75,
          76,
          77,
          78,
          79,
          80,
          81,
          82,
          83,
          84,
          85,
          86,
          87,
          88,
          89,
          90,
          91,
          92,
          93,
          94,
          95,
          96,
          97,
          98,
          99,
          100,
          101,
          102,
          103,
          104,
          105,
          106,
          107,
          108,
          109,
          110,
          111,
          112,
          113,
          114,
          115,
          116,
          117,
          118,
          119,
          120,
          121,
          122,
          123,
          124,
          125,
          126,
          127,
          128,
          129,
          130,
          131,
          132,
          133,
          134,
          135,
          136,
          137,
          138,
          139,
          140,
          141,
          142,
          143,
          144,
          145,
          146,
          147,
          148,
          149,
          150
        ],
        "AcquisitionTime": [
          "195646.015000",
          "195648.625000",
          "195651.235000",
          "195653.845000",
          "195656.457500",
          "195659.067500",
          "195701.677500",
          "195704.287500",
          "195706.897500",
          "195709.510000",
          "195712.120000",
          "195714.730000",
          "195717.340000",
          "195719.950000",
          "195722.560000",
          "195725.172500",
          "195727.782500",
          "195730.392500",
          "195733.002500",
          "195735.612500",
          "195738.222500",
          "195740.835000",
          "195743.445000",
          "195746.055000",
          "195748.665000",
          "195751.275000",
          "195753.887500",
          "195756.497500",
          "195759.107500",
          "195801.717500",
          "195804.327500",
          "195806.937500",
          "195809.550000",
          "195812.160000",
          "195814.770000",
          "195817.380000",
          "195819.990000",
          "195822.600000",
          "195825.212500",
          "195827.822500",
          "195830.432500",
          "195833.042500",
          "195835.652500",
          "195838.265000",
          "195840.875000",
          "195843.485000",
          "195846.095000",
          "195848.705000",
          "195851.315000",
          "195853.927500",
          "195856.537500",
          "195859.147500",
          "195901.757500",
          "195904.367500",
          "195906.977500",
          "195909.590000",
          "195912.200000",
          "195914.810000",
          "195917.420000",
          "195920.030000",
          "195922.642500",
          "195925.252500",
          "195927.862500",
          "195930.472500",
          "195933.082500",
          "195935.692500",
          "195938.305000",
          "195940.915000",
          "195943.525000",
          "195946.135000",
          "195948.745000",
          "195951.355000",
          "195953.967500",
          "195956.577500",
          "195959.187500",
          "200001.797500",
          "200004.407500",
          "200007.020000",
          "200009.630000",
          "200012.240000",
          "200014.850000",
          "200017.460000",
          "200020.070000",
          "200022.682500",
          "200025.292500",
          "200027.902500",
          "200030.512500",
          "200033.122500",
          "200035.732500",
          "200038.345000",
          "200040.955000",
          "200043.565000",
          "200046.175000",
          "200048.785000",
          "200051.397500",
          "200054.007500",
          "200056.617500",
          "200059.227500",
          "200101.837500",
          "200104.447500",
          "200107.060000",
          "200109.670000",
          "200112.280000",
          "200114.890000",
          "200117.500000",
          "200120.110000",
          "200122.722500",
          "200125.332500",
          "200127.942500",
          "200130.552500",
          "200133.162500",
          "200135.775000",
          "200138.385000",
          "200140.995000",
          "200143.605000",
          "200146.215000",
          "200148.825000",
          "200151.437500",
          "200154.047500",
          "200156.657500",
          "200159.267500",
          "200201.877500",
          "200204.487500",
          "200207.100000",
          "200209.710000",
          "200212.320000",
          "200214.930000",
          "200217.540000",
          "200220.152500",
          "200222.762500",
          "200225.372500",
          "200227.982500",
          "200230.592500",
          "200233.202500",
          "200235.815000",
          "200238.425000",
          "200241.035000",
          "200243.645000",
          "200246.255000",
          "200248.865000",
          "200251.477500",
          "200254.087500",
          "200256.697500",
          "200259.307500",
          "200301.917500",
          "200304.530000",
          "200307.140000",
          "200309.750000",
          "200312.360000",
          "200314.970000"
        ],
        "ContentTime": [
          "195655.312000",
          "195655.796000",
          "195656.296000",
          "195658.796000",
          "195701.296000",
          "195703.796000",
          "195706.296000",
          "195708.796000",
          "195711.796000",
          "195714.296000",
          "195716.796000",
          "195719.296000",
          "195721.796000",
          "195724.796000",
          "195727.296000",
          "195729.796000",
          "195732.296000",
          "195734.796000",
          "195737.796000",
          "195740.296000",
          "195742.796000",
          "195745.296000",
          "195747.796000",
          "195750.796000",
          "195753.296000",
          "195755.796000",
          "195758.296000",
          "195800.796000",
          "195803.796000",
          "195806.296000",
          "195808.796000",
          "195811.296000",
          "195813.796000",
          "195816.796000",
          "195819.296000",
          "195821.796000",
          "195824.296000",
          "195826.796000",
          "195829.796000",
          "195832.296000",
          "195834.796000",
          "195837.296000",
          "195839.796000",
          "195842.796000",
          "195845.296000",
          "195847.796000",
          "195850.296000",
          "195852.796000",
          "195855.796000",
          "195858.296000",
          "195900.796000",
          "195903.296000",
          "195905.796000",
          "195908.796000",
          "195911.296000",
          "195913.796000",
          "195916.296000",
          "195918.796000",
          "195921.796000",
          "195924.296000",
          "195926.796000",
          "195929.296000",
          "195931.796000",
          "195934.796000",
          "195937.296000",
          "195939.796000",
          "195942.296000",
          "195944.796000",
          "195947.796000",
          "195950.296000",
          "195952.796000",
          "195955.296000",
          "195957.796000",
          "200000.796000",
          "200003.296000",
          "200005.796000",
          "200008.296000",
          "200010.796000",
          "200013.796000",
          "200016.296000",
          "200018.796000",
          "200021.296000",
          "200023.796000",
          "200026.796000",
          "200029.296000",
          "200031.796000",
          "200034.296000",
          "200036.796000",
          "200039.796000",
          "200042.296000",
          "200044.796000",
          "200047.296000",
          "200049.796000",
          "200052.796000",
          "200055.296000",
          "200057.796000",
          "200100.296000",
          "200102.796000",
          "200105.796000",
          "200108.296000",
          "200110.796000",
          "200113.296000",
          "200115.796000",
          "200118.796000",
          "200121.296000",
          "200123.796000",
          "200126.296000",
          "200128.796000",
          "200131.796000",
          "200134.296000",
          "200136.796000",
          "200139.296000",
          "200141.796000",
          "200144.796000",
          "200147.296000",
          "200149.796000",
          "200152.296000",
          "200154.796000",
          "200157.796000",
          "200200.296000",
          "200202.796000",
          "200205.296000",
          "200207.796000",
          "200210.796000",
          "200213.296000",
          "200215.796000",
          "200218.296000",
          "200220.796000",
          "200223.796000",
          "200226.296000",
          "200228.796000",
          "200231.296000",
          "200233.796000",
          "200236.796000",
          "200239.296000",
          "200241.796000",
          "200244.296000",
          "200246.796000",
          "200249.796000",
          "200252.296000",
          "200254.796000",
          "200257.296000",
          "200259.796000",
          "200302.796000",
          "200305.296000",
          "200307.796000",
          "200310.296000",
          "200312.796000",
          "200315.796000",
          "200322.921000"
        ],
        "InstanceCreationTime": [
          "195655.312000",
          "195655.796000",
          "195656.296000",
          "195658.796000",
          "195701.296000",
          "195703.796000",
          "195706.296000",
          "195708.796000",
          "195711.796000",
          "195714.296000",
          "195716.796000",
          "195719.296000",
          "195721.796000",
          "195724.796000",
          "195727.296000",
          "195729.796000",
          "195732.296000",
          "195734.796000",
          "195737.796000",
          "195740.296000",
          "195742.796000",
          "195745.296000",
          "195747.796000",
          "195750.796000",
          "195753.296000",
          "195755.796000",
          "195758.296000",
          "195800.796000",
          "195803.796000",
          "195806.296000",
          "195808.796000",
          "195811.296000",
          "195813.796000",
          "195816.796000",
          "195819.296000",
          "195821.796000",
          "195824.296000",
          "195826.796000",
          "195829.796000",
          "195832.296000",
          "195834.796000",
          "195837.296000",
          "195839.796000",
          "195842.796000",
          "195845.296000",
          "195847.796000",
          "195850.296000",
          "195852.796000",
          "195855.796000",
          "195858.296000",
          "195900.796000",
          "195903.296000",
          "195905.796000",
          "195908.796000",
          "195911.296000",
          "195913.796000",
          "195916.296000",
          "195918.796000",
          "195921.796000",
          "195924.296000",
          "195926.796000",
          "195929.296000",
          "195931.796000",
          "195934.796000",
          "195937.296000",
          "195939.796000",
          "195942.296000",
          "195944.796000",
          "195947.796000",
          "195950.296000",
          "195952.796000",
          "195955.296000",
          "195957.796000",
          "200000.796000",
          "200003.296000",
          "200005.796000",
          "200008.296000",
          "200010.796000",
          "200013.796000",
          "200016.296000",
          "200018.796000",
          "200021.296000",
          "200023.796000",
          "200026.796000",
          "200029.296000",
          "200031.796000",
          "200034.296000",
          "200036.796000",
          "200039.796000",
          "200042.296000",
          "200044.796000",
          "200047.296000",
          "200049.796000",
          "200052.796000",
          "200055.296000",
          "200057.796000",
          "200100.296000",
          "200102.796000",
          "200105.796000",
          "200108.296000",
          "200110.796000",
          "200113.296000",
          "200115.796000",
          "200118.796000",
          "200121.296000",
          "200123.796000",
          "200126.296000",
          "200128.796000",
          "200131.796000",
          "200134.296000",
          "200136.796000",
          "200139.296000",
          "200141.796000",
          "200144.796000",
          "200147.296000",
          "200149.796000",
          "200152.296000",
          "200154.796000",
          "200157.796000",
          "200200.296000",
          "200202.796000",
          "200205.296000",
          "200207.796000",
          "200210.796000",
          "200213.296000",
          "200215.796000",
          "200218.296000",
          "200220.796000",
          "200223.796000",
          "200226.296000",
          "200228.796000",
          "200231.296000",
          "200233.796000",
          "200236.796000",
          "200239.296000",
          "200241.796000",
          "200244.296000",
          "200246.796000",
          "200249.796000",
          "200252.296000",
          "200254.796000",
          "200257.296000",
          "200259.796000",
          "200302.796000",
          "200305.296000",
          "200307.796000",
          "200310.296000",
          "200312.796000",
          "200315.796000",
          "200322.921000"
        ],
        "InstanceNumber": [
          1,
          2,
          3,
          4,
          5,
          6,
          7,
          8,
          9,
          10,
          11,
          12,
          13,
          14,
          15,
          16,
          17,
          18,
          19,
          20,
          21,
          22,
          23,
          24,
          25,
          26,
          27,
          28,
          29,
          30,
          31,
          32,
          33,
          34,
          35,
          36,
          37,
          38,
          39,
          40,
          41,
          42,
          43,
          44,
          45,
          46,
          47,
          48,
          49,
          50,
          51,
          52,
          53,
          54,
          55,
          56,
          57,
          58,
          59,
          60,
          61,
          62,
          63,
          64,
          65,
          66,
          67,
          68,
          69,
          70,
          71,
          72,
          73,
          74,
          75,
          76,
          77,
          78,
          79,
          80,
          81,
          82,
          83,
          84,
          85,
          86,
          87,
          88,
          89,
          90,
          91,
          92,
          93,
          94,
          95,
          96,
          97,
          98,
          99,
          100,
          101,
          102,
          103,
          104,
          105,
          106,
          107,
          108,
          109,
          110,
          111,
          112,
          113,
          114,
          115,
          116,
          117,
          118,
          119,
          120,
          121,
          122,
          123,
          124,
          125,
          126,
          127,
          128,
          129,
          130,
          131,
          132,
          133,
          134,
          135,
          136,
          137,
          138,
          139,
          140,
          141,
          142,
          143,
          144,
          145,
          146,
          147,
          148,
          149,
          150
        ],
        "WindowCenter": [
          863.0,
          862.0,
          861.0,
          861.0,
          860.0,
          861.0,
          861.0,
          861.0,
          861.0,
          861.0,
          860.0,
          860.0,
          861.0,
          862.0,
          862.0,
          861.0,
          861.0,
          860.0,
          861.0,
          861.0,
          860.0,
          861.0,
          861.0,
          860.0,
          859.0,
          860.0,
          860.0,
          859.0,
          859.0,
          859.0,
          860.0,
          860.0,
          861.0,
          860.0,
          860.0,
          861.0,
          860.0,
          860.0,
          860.0,
          859.0,
          859.0,
          860.0,
          861.0,
          861.0,
          861.0,
          861.0,
          861.0,
          861.0,
          860.0,
          861.0,
          860.0,
          860.0,
          859.0,
          859.0,
          860.0,
          861.0,
          861.0,
          861.0,
          861.0,
          861.0,
          860.0,
          860.0,
          860.0,
          859.0,
          859.0,
          860.0,
          860.0,
          860.0,
          860.0,
          861.0,
          860.0,
          860.0,
          860.0,
          861.0,
          860.0,
          859.0,
          861.0,
          860.0,
          860.0,
          860.0,
          860.0,
          859.0,
          860.0,
          860.0,
          861.0,
          862.0,
          861.0,
          860.0,
          860.0,
          859.0,
          860.0,
          860.0,
          860.0,
          861.0,
          860.0,
          860.0,
          860.0,
          860.0,
          860.0,
          860.0,
          860.0,
          859.0,
          860.0,
          859.0,
          860.0,
          859.0,
          860.0,
          861.0,
          860.0,
          859.0,
          861.0,
          860.0,
          861.0,
          860.0,
          860.0,
          860.0,
          860.0,
          860.0,
          861.0,
          861.0,
          860.0,
          860.0,
          859.0,
          859.0,
          860.0,
          861.0,
          860.0,
          860.0,
          860.0,
          861.0,
          860.0,
          860.0,
          860.0,
          860.0,
          859.0,
          860.0,
          859.0,
          859.0,
          859.0,
          859.0,
          859.0,
          859.0,
          859.0,
          859.0,
          859.0,
          858.0,
          858.0,
          859.0,
          859.0,
          860.0
        ],
        "WindowWidth": [
          1956.0,
          1953.0,
          1950.0,
          1949.0,
          1947.0,
          1949.0,
          1952.0,
          1951.0,
          1949.0,
          1951.0,
          1946.0,
          1946.0,
          1952.0,
          1953.0,
          1951.0,
          1950.0,
          1950.0,
          1948.0,
          1949.0,
          1949.0,
          1947.0,
          1952.0,
          1950.0,
          1946.0,
          1944.0,
          1946.0,
          1946.0,
          1944.0,
          1942.0,
          1945.0,
          1948.0,
          1946.0,
          1950.0,
          1948.0,
          1948.0,
          1951.0,
          1948.0,
          1947.0,
          1946.0,
          1945.0,
          1943.0,
          1946.0,
          1951.0,
          1950.0,
          1950.0,
          1950.0,
          1950.0,
          1949.0,
          1948.0,
          1948.0,
          1947.0,
          1946.0,
          1943.0,
          1944.0,
          1947.0,
          1949.0,
          1951.0,
          1950.0,
          1951.0,
          1950.0,
          1948.0,
          1948.0,
          1947.0,
          1944.0,
          1944.0,
          1947.0,
          1946.0,
          1947.0,
          1947.0,
          1949.0,
          1947.0,
          1944.0,
          1946.0,
          1949.0,
          1945.0,
          1945.0,
          1951.0,
          1946.0,
          1945.0,
          1948.0,
          1945.0,
          1943.0,
          1946.0,
          1946.0,
          1949.0,
          1952.0,
          1948.0,
          1947.0,
          1946.0,
          1943.0,
          1946.0,
          1948.0,
          1948.0,
          1949.0,
          1946.0,
          1945.0,
          1948.0,
          1947.0,
          1947.0,
          1947.0,
          1946.0,
          1944.0,
          1945.0,
          1943.0,
          1945.0,
          1944.0,
          1946.0,
          1949.0,
          1946.0,
          1944.0,
          1949.0,
          1948.0,
          1949.0,
          1945.0,
          1946.0,
          1946.0,
          1944.0,
          1945.0,
          1949.0,
          1949.0,
          1946.0,
          1945.0,
          1944.0,
          1942.0,
          1945.0,
          1949.0,
          1947.0,
          1948.0,
          1947.0,
          1949.0,
          1947.0,
          1948.0,
          1948.0,
          1945.0,
          1944.0,
          1945.0,
          1944.0,
          1942.0,
          1943.0,
          1942.0,
          1942.0,
          1943.0,
          1943.0,
          1944.0,
          1943.0,
          1940.0,
          1941.0,
          1944.0,
          1942.0,
          1946.0
        ]
      },
      "slices": {}
    }
  },
  "dummy_trs": 0,
  "dvars_nstd": 78.45492005825503,
  "dvars_std": 1.078303590939597,
  "dvars_vstd": 1.013895798926174,
  "efc": 0.578811812008259,
  "fber": 248.18508911132812,
  "fd_mean": 0.042763106588526376,
  "fd_num": 0,
  "fd_perc": 0.0,
  "fwhm_avg": 2.8999061454001307,
  "fwhm_x": 2.543092315338945,
  "fwhm_y": 2.9231534636723513,
  "fwhm_z": 3.233472657189095,
  "gcor": 0.00102498,
  "gsr_x": -0.03228030726313591,
  "gsr_y": 0.06356598436832428,
  "provenance": {
    "md5sum": "3711326aa33c9e89dccc356e7bcc9e8e",
    "settings": {
      "fd_thres": 0.2,
      "testing": false
    },
    "software": "mriqc",
    "version": "23.0.1",
    "webapi_port": null,
    "webapi_url": "https://mriqc.nimh.nih.gov/api/v1"
  },
  "size_t": 150,
  "size_x": 188,
  "size_y": 188,
  "size_z": 46,
  "snr": 2.085830487221858,
  "spacing_tr": 2.5999999046325684,
  "spacing_x": 1.0957447290420532,
  "spacing_y": 1.0957447290420532,
  "spacing_z": 1.100000023841858,
  "summary_bg_k": 26.876582940809733,
  "summary_bg_mad": 29.76076913607484,
  "summary_bg_mean": 89.55955505371094,
  "summary_bg_median": 55.9466667175293,
  "summary_bg_n": 1030618.0,
  "summary_bg_p05": 31.886667251586914,
  "summary_bg_p95": 266.60766143798764,
  "summary_bg_stdv": 97.6463851928711,
