{
  "aor": 0.0008328,
  "aqi": 0.017108296666666665,
  "bids_meta": {
    "AcquisitionMatrixPE": 188,
    "AcquisitionNumber": 1,
    "AcquisitionTime": "19:41:27.530000",
    "BandwidthPerPixelPhaseEncode": 19.46,
    "BaseResolution": 188,
    "CogAtlasID": "TODO",
    "ConversionSoftware": "dcm2niix",
    "ConversionSoftwareVersion": "v1.0.20180606 GCC4.8.5",
    "DelayTime": 1.2,
    "DerivedVendorReportedEchoSpacing": 0.000820013,
    "DeviceSerialNumber": "18930",
    "DwellTime": 1.9e-06,
    "EchoTime": 0.02,
    "EffectiveEchoSpacing": 0.000273338,
    "FlipAngle": 80,
    "ImageComments": "Unaliased_MB2_PE2",
    "ImageOrientationPatientDICOM": [
      0.999248,
      0.020497,
      -0.0329253,
      -0.0374194,
      0.286299,
      -0.957409
    ],
    "ImageType": [
      "ORIGINAL",
      "PRIMARY",
      "M",
      "MB",
      "ND",
      "MOSAIC"
    ],
    "InPlanePhaseEncodingDirectionDICOM": "COL",
    "InstitutionAddress": "Oxfordlaan_55_Maastricht_753AAF_Limburg_NL_6229_EV",
    "InstitutionName": "Scannexus",
    "InstitutionalDepartmentName": "MRI_7T",
    "MRAcquisitionType": "2D",
    "MagneticFieldStrength": 6.98,
    "Manufacturer": "Siemens",
    "ManufacturersModelName": "Investigational_Device_7T",
    "Modality": "MR",
    "MultibandAccelerationFactor": 2,
    "ParallelReductionFactorInPlane": 3,
    "PartialFourier": 0.75,
    "PatientPosition": "HFS",
    "PercentPhaseFOV": 100,
    "PhaseEncodingDirection": "j",
    "PhaseEncodingSteps": 141,
    "PhaseResolution": 1,
    "PixelBandwidth": 1400,
    "ProcedureStepDescription": "FeDem_Faruk",
    "ProtocolName": "cmrr_mbep2d_bold_AP_run9",
    "PulseSequenceDetails": "%CustomerSeq%_cmrr_mbep2d_bold",
    "ReceiveCoilName": "32Ch_Head_7T",
    "ReconMatrixPE": 188,
    "RepetitionTime": 2.6,
    "SAR": 0.0591497,
    "ScanOptions": "PFP_FS",
    "ScanningSequence": "EP",
    "SequenceName": "epfid2d1_188",
    "SequenceVariant": "SK_SS",
    "SeriesDescription": "cmrr_mbep2d_bold_AP_run9",
    "SeriesNumber": 22,
    "ShimSetting": [
      117,
      -256,
      552,
      270,
      8,
      -144,
      276,
      73
    ],
    "SliceThickness": 1.1,
    "SliceTiming": [
      0,
      0.735,
      0.0625,
      0.795,
      0.1225,
      0.8575,
      0.185,
      0.9175,
      0.245,
      0.9775,
      0.3075,
      1.04,
      0.3675,
      1.1,
      0.4275,
      1.1625,
      0.49,
      1.2225,
      0.55,
      1.285,
      0.6125,
      1.345,
      0.6725,
      0,
      0.735,
      0.0625,
      0.795,
      0.1225,
      0.8575,
      0.185,
      0.9175,
      0.245,
      0.9775,
      0.3075,
      1.04,
      0.3675,
      1.1,
      0.4275,
      1.1625,
      0.49,
      1.2225,
      0.55,
      1.285,
      0.6125,
      1.345,
      0.6725
    ],
    "SoftwareVersions": "syngo_MR_B17",
    "SpacingBetweenSlices": 1.1,
    "StationName": "MRC18930",
    "TaskName": "auditory",
    "TotalReadoutTime": 0.0511141,
    "TxRefAmp": 210,
    "dataset": "ds001942",
    "dcmmeta_affine": [
      [
        -1.09492027759552,
        -0.04100212827324867,
        0.011217254213988781,
        102.66847229003906
      ],
      [
        -0.02245943620800972,
        0.31371042132377625,
        -1.0537132024765015,
        22.232385635375977
      ],
      [
        -0.03607774153351784,
        1.0490763187408447,
        0.31553545594215393,
        -109.380859375
      ],
      [
        0.0,
        0.0,
        0.0,
        1.0
      ]
    ],
    "dcmmeta_reorient_transform": [
      [
        0.0,
        -1.0,
        0.0,
        187.0
      ],
      [
        1.0,
        0.0,
        0.0,
        0.0
      ],
      [
        0.0,
        0.0,
        1.0,
        0.0
      ],
      [
        0.0,
        0.0,
        0.0,
        1.0
      ]
    ],
    "dcmmeta_shape": [
      188,
      188,
      46,
      150
    ],
    "dcmmeta_slice_dim": 2,
    "dcmmeta_version": 0.6,
    "global": {
      "const": {
        "AcquisitionMatrix": [
          188,
          0,
          0,
          188
        ],
        "AngioFlag": "N",
        "BitsAllocated": 16,
        "BitsStored": 12,
        "Columns": 1316,
        "EchoNumbers": 1,
        "EchoTime": 20.0,
        "EchoTrainLength": 1,
        "FlipAngle": 80.0,
        "HighBit": 11,
        "ImageOrientationPatient": [
          0.99924761605585,
          0.02049696029164,
          -0.0329253158756,
          -0.0374194164785,
          0.28629882111884,
          -0.9574094068351
        ],
        "ImagePositionPatient": [
          -689.41092549423,
          -270.49603658848,
          698.82329381524
        ],
        "ImageType": [
          "ORIGINAL",
          "PRIMARY",
          "M",
          "MB",
          "ND",
          "MOSAIC"
        ],
        "ImagedNucleus": "1H",
        "ImagingFrequency": 297.205526,
        "InPlanePhaseEncodingDirection": "COL",
        "LargestImagePixelValue": 4095,
        "MRAcquisitionType": "2D",
        "MagneticFieldStrength": 6.98,
        "Manufacturer": "SIEMENS",
        "ManufacturerModelName": "Investigational_Device_7T",
        "Modality": "MR",
        "NumberOfAverages": 1.0,
        "NumberOfPhaseEncodingSteps": 141,
        "PercentPhaseFieldOfView": 100.0,
        "PercentSampling": 100.0,
        "PerformedProcedureStepStartTime": "181136.593000",
        "PhotometricInterpretation": "MONOCHROME2",
        "PixelBandwidth": 1400.0,
        "PixelRepresentation": 0,
        "PixelSpacing": [
          1.0957447290421,
          1.0957447290421
        ],
        "ProtocolName": "cmrr_mbep2d_bold_AP_run9",
        "RepetitionTime": 2600.0,
        "Rows": 1316,
        "SAR": 0.05914973915899,
        "SamplesPerPixel": 1,
        "ScanOptions": [
          "PFP",
          "FS"
        ],
        "ScanningSequence": "EP",
        "SequenceName": "epfid2d1_188",
        "SequenceVariant": [
          "SK",
          "SS"
        ],
        "SeriesDescription": "cmrr_mbep2d_bold_AP_run9",
        "SeriesNumber": 22,
        "SeriesTime": "194137.562000",
        "SliceLocation": -51.625853746699,
        "SliceThickness": 1.1000000238419,
        "SmallestImagePixelValue": 0,
        "SoftwareVersions": "syngo MR B17",
        "SpacingBetweenSlices": 1.1000000357126,
        "SpecificCharacterSet": "ISO_IR 100",
        "StudyID": "1",
        "StudyTime": "181136.484000",
        "TransmitCoilName": "32Ch_Head_7T",
        "VariableFlipAngleFlag": "N",
        "WindowCenterWidthExplanation": "Algo1",
        "dBdt": 0.0
      },
      "slices": {}
    },
    "modality": "bold",
    "run_id": 9,
    "session_id": "SES03",
    "subject_id": "S06",
    "task_id": "auditory",
    "time": {
      "samples": {
        "AcquisitionNumber": [
          1,
          2,
          3,
          4,
          5,
          6,
          7,
          8,
          9,
          10,
          11,
          12,
          13,
          14,
          15,
          16,
          17,
          18,
          19,
          20,
          21,
          22,
          23,
          24,
          25,
          26,
          27,
          28,
          29,
          30,
          31,
          32,
          33,
          34,
          35,
          36,
          37,
          38,
          39,
          40,
          41,
          42,
          43,
          44,
          45,
          46,
          47,
          48,
          49,
          50,
          51,
          52,
          53,
          54,
          55,
          56,
          57,
          58,
          59,
          60,
          61,
          62,
          63,
          64,
          65,
          66,
          67,
          68,
          69,
          70,
          71,
          72,
          73,
          74,
          75,
          76,
          77,
          78,
          79,
          80,
          81,
          82,
          83,
          84,
          85,
          86,
          87,
          88,
          89,
          90,
          91,
          92,
          93,
          94,
          95,
          96,
          97,
          98,
          99,
          100,
          101,
          102,
          103,
          104,
          105,
          106,
          107,
          108,
          109,
          110,
          111,
          112,
          113,
          114,
          115,
          116,
          117,
          118,
          119,
          120,
          121,
          122,
          123,
          124,
          125,
          126,
          127,
          128,
          129,
          130,
          131,
          132,
          133,
          134,
          135,
          136,
          137,
          138,
          139,
          140,
          141,
          142,
          143,
          144,
          145,
          146,
          147,
          148,
          149,
          150
        ],
        "AcquisitionTime": [
          "194127.530000",
          "194130.140000",
          "194132.752500",
          "194135.362500",
          "194137.972500",
          "194140.582500",
          "194143.192500",
          "194145.805000",
          "194148.415000",
          "194151.025000",
          "194153.635000",
          "194156.245000",
          "194158.855000",
          "194201.467500",
          "194204.077500",
          "194206.687500",
          "194209.297500",
          "194211.907500",
          "194214.517500",
          "194217.130000",
          "194219.740000",
          "194222.350000",
          "194224.960000",
          "194227.570000",
          "194230.182500",
          "194232.792500",
          "194235.402500",
          "194238.012500",
          "194240.622500",
          "194243.232500",
          "194245.845000",
          "194248.455000",
          "194251.065000",
          "194253.675000",
          "194256.285000",
          "194258.897500",
          "194301.507500",
          "194304.117500",
          "194306.727500",
          "194309.337500",
          "194311.947500",
          "194314.560000",
          "194317.170000",
          "194319.780000",
          "194322.390000",
          "194325.000000",
          "194327.610000",
          "194330.222500",
          "194332.832500",
          "194335.442500",
          "194338.052500",
          "194340.662500",
          "194343.275000",
          "194345.885000",
          "194348.495000",
          "194351.105000",
          "194353.715000",
          "194356.325000",
          "194358.937500",
          "194401.547500",
          "194404.157500",
          "194406.767500",
          "194409.377500",
          "194411.987500",
          "194414.600000",
          "194417.210000",
          "194419.820000",
          "194422.430000",
          "194425.040000",
          "194427.652500",
          "194430.262500",
          "194432.872500",
          "194435.482500",
          "194438.092500",
          "194440.702500",
          "194443.315000",
          "194445.925000",
          "194448.535000",
          "194451.145000",
          "194453.755000",
          "194456.365000",
          "194458.977500",
          "194501.587500",
          "194504.197500",
          "194506.807500",
          "194509.417500",
          "194512.030000",
          "194514.640000",
          "194517.250000",
          "194519.860000",
          "194522.470000",
          "194525.080000",
          "194527.692500",
          "194530.302500",
          "194532.912500",
          "194535.522500",
          "194538.132500",
          "194540.742500",
          "194543.355000",
          "194545.965000",
          "194548.575000",
          "194551.185000",
          "194553.795000",
          "194556.407500",
          "194559.017500",
          "194601.627500",
          "194604.237500",
          "194606.847500",
          "194609.457500",
          "194612.070000",
          "194614.680000",
          "194617.290000",
          "194619.900000",
          "194622.510000",
          "194625.120000",
          "194627.732500",
          "194630.342500",
          "194632.952500",
          "194635.562500",
          "194638.172500",
          "194640.785000",
          "194643.395000",
          "194646.005000",
          "194648.615000",
          "194651.225000",
          "194653.835000",
          "194656.447500",
          "194659.057500",
          "194701.667500",
          "194704.277500",
          "194706.887500",
          "194709.497500",
          "194712.110000",
          "194714.720000",
          "194717.330000",
          "194719.940000",
          "194722.550000",
          "194725.162500",
          "194727.772500",
          "194730.382500",
          "194732.992500",
          "194735.602500",
          "194738.212500",
          "194740.825000",
          "194743.435000",
          "194746.045000",
          "194748.655000",
          "194751.265000",
          "194753.875000",
          "194756.487500"
        ],
        "ContentTime": [
          "194137.562000",
          "194137.578000",
          "194138.062000",
          "194140.562000",
          "194143.062000",
          "194145.562000",
          "194148.062000",
          "194151.062000",
          "194153.562000",
          "194156.062000",
          "194158.562000",
          "194201.562000",
          "194204.062000",
          "194206.562000",
          "194209.062000",
          "194211.562000",
          "194214.062000",
          "194217.062000",
          "194219.562000",
          "194222.062000",
          "194224.562000",
          "194227.062000",
          "194230.062000",
          "194232.562000",
          "194235.062000",
          "194237.562000",
          "194240.062000",
          "194243.062000",
          "194245.562000",
          "194248.062000",
          "194250.562000",
          "194253.062000",
          "194256.062000",
          "194258.562000",
          "194301.062000",
          "194303.562000",
          "194306.062000",
          "194309.062000",
          "194311.562000",
          "194314.062000",
          "194316.562000",
          "194319.062000",
          "194322.062000",
          "194324.562000",
          "194327.062000",
          "194329.562000",
          "194332.062000",
          "194335.062000",
          "194337.578000",
          "194340.062000",
          "194342.562000",
          "194345.062000",
          "194348.062000",
          "194350.562000",
          "194353.062000",
          "194355.562000",
          "194358.062000",
          "194401.062000",
          "194403.562000",
          "194406.062000",
          "194408.562000",
          "194411.062000",
          "194414.062000",
          "194416.562000",
          "194419.062000",
          "194421.562000",
          "194424.562000",
          "194427.062000",
          "194429.562000",
          "194432.062000",
          "194434.562000",
          "194437.062000",
          "194440.062000",
          "194442.562000",
          "194445.062000",
          "194447.562000",
          "194450.062000",
          "194453.062000",
          "194455.562000",
          "194458.062000",
          "194500.562000",
          "194503.062000",
          "194506.062000",
          "194508.562000",
          "194511.062000",
          "194513.562000",
          "194516.062000",
          "194519.062000",
          "194521.562000",
          "194524.062000",
          "194526.562000",
          "194529.562000",
          "194532.062000",
          "194534.562000",
          "194537.062000",
          "194539.562000",
          "194542.062000",
          "194545.062000",
          "194547.562000",
          "194550.062000",
          "194552.562000",
          "194555.062000",
          "194558.062000",
          "194600.562000",
          "194603.062000",
          "194605.562000",
          "194608.062000",
          "194611.062000",
          "194613.562000",
          "194616.062000",
          "194618.562000",
          "194621.062000",
          "194624.062000",
          "194626.562000",
          "194629.062000",
          "194631.562000",
          "194634.062000",
          "194637.062000",
          "194639.562000",
          "194642.062000",
          "194644.562000",
          "194647.062000",
          "194650.062000",
          "194652.562000",
          "194655.062000",
          "194657.562000",
          "194700.062000",
          "194703.062000",
          "194705.562000",
          "194708.062000",
          "194710.562000",
          "194713.562000",
          "194716.062000",
          "194718.562000",
          "194721.062000",
          "194723.562000",
          "194726.062000",
          "194729.062000",
          "194731.562000",
          "194734.062000",
          "194736.562000",
          "194739.062000",
          "194742.062000",
          "194744.562000",
          "194747.062000",
          "194749.562000",
          "194752.062000",
          "194755.062000",
          "194757.562000",
          "194804.828000"
        ],
        "InstanceCreationTime": [
          "194137.562000",
          "194137.578000",
          "194138.062000",
          "194140.562000",
          "194143.062000",
          "194145.562000",
          "194148.062000",
          "194151.062000",
          "194153.562000",
          "194156.062000",
          "194158.562000",
          "194201.562000",
          "194204.062000",
          "194206.562000",
          "194209.062000",
          "194211.562000",
          "194214.062000",
          "194217.062000",
          "194219.562000",
          "194222.062000",
          "194224.562000",
          "194227.062000",
          "194230.062000",
          "194232.562000",
          "194235.062000",
          "194237.562000",
          "194240.062000",
          "194243.062000",
          "194245.562000",
          "194248.062000",
          "194250.562000",
          "194253.062000",
          "194256.062000",
          "194258.562000",
          "194301.062000",
          "194303.562000",
          "194306.062000",
          "194309.062000",
          "194311.562000",
          "194314.062000",
          "194316.562000",
          "194319.062000",
          "194322.062000",
          "194324.562000",
          "194327.062000",
          "194329.562000",
          "194332.062000",
          "194335.062000",
          "194337.578000",
          "194340.062000",
          "194342.562000",
          "194345.062000",
          "194348.062000",
          "194350.562000",
          "194353.062000",
          "194355.562000",
          "194358.062000",
          "194401.062000",
          "194403.562000",
          "194406.062000",
          "194408.562000",
          "194411.062000",
          "194414.062000",
          "194416.562000",
          "194419.062000",
          "194421.562000",
          "194424.562000",
          "194427.062000",
          "194429.562000",
          "194432.062000",
          "194434.562000",
          "194437.062000",
          "194440.062000",
          "194442.562000",
          "194445.062000",
          "194447.562000",
          "194450.062000",
          "194453.062000",
          "194455.562000",
          "194458.062000",
          "194500.562000",
          "194503.062000",
          "194506.062000",
          "194508.562000",
          "194511.062000",
          "194513.562000",
          "194516.062000",
          "194519.062000",
          "194521.562000",
          "194524.062000",
          "194526.562000",
          "194529.562000",
          "194532.062000",
          "194534.562000",
          "194537.062000",
          "194539.562000",
          "194542.062000",
          "194545.062000",
          "194547.562000",
          "194550.062000",
          "194552.562000",
          "194555.062000",
          "194558.062000",
          "194600.562000",
          "194603.062000",
          "194605.562000",
          "194608.062000",
          "194611.062000",
          "194613.562000",
          "194616.062000",
          "194618.562000",
          "194621.062000",
          "194624.062000",
          "194626.562000",
          "194629.062000",
          "194631.562000",
          "194634.062000",
          "194637.062000",
          "194639.562000",
          "194642.062000",
          "194644.562000",
          "194647.062000",
          "194650.062000",
          "194652.562000",
          "194655.062000",
          "194657.562000",
          "194700.062000",
          "194703.062000",
          "194705.562000",
          "194708.062000",
          "194710.562000",
          "194713.562000",
          "194716.062000",
          "194718.562000",
          "194721.062000",
          "194723.562000",
          "194726.062000",
          "194729.062000",
          "194731.562000",
          "194734.062000",
          "194736.562000",
          "194739.062000",
          "194742.062000",
          "194744.562000",
          "194747.062000",
          "194749.562000",
          "194752.062000",
          "194755.062000",
          "194757.562000",
          "194804.828000"
        ],
        "InstanceNumber": [
          1,
          2,
          3,
          4,
          5,
          6,
          7,
          8,
          9,
          10,
          11,
          12,
          13,
          14,
          15,
          16,
          17,
          18,
          19,
          20,
          21,
          22,
          23,
          24,
          25,
          26,
          27,
          28,
          29,
          30,
          31,
          32,
          33,
          34,
          35,
          36,
          37,
          38,
          39,
          40,
          41,
          42,
          43,
          44,
          45,
          46,
          47,
          48,
          49,
          50,
          51,
          52,
          53,
          54,
          55,
          56,
          57,
          58,
          59,
          60,
          61,
          62,
          63,
          64,
          65,
          66,
          67,
          68,
          69,
          70,
          71,
          72,
          73,
          74,
          75,
          76,
          77,
          78,
          79,
          80,
          81,
          82,
          83,
          84,
          85,
          86,
          87,
          88,
          89,
          90,
          91,
          92,
          93,
          94,
          95,
          96,
          97,
          98,
          99,
          100,
          101,
          102,
          103,
          104,
          105,
          106,
          107,
          108,
          109,
          110,
          111,
          112,
          113,
          114,
          115,
          116,
          117,
          118,
          119,
          120,
          121,
          122,
          123,
          124,
          125,
          126,
          127,
          128,
          129,
          130,
          131,
          132,
          133,
          134,
          135,
          136,
          137,
          138,
          139,
          140,
          141,
          142,
          143,
          144,
          145,
          146,
          147,
          148,
          149,
          150
        ],
        "WindowCenter": [
          860.0,
          859.0,
          859.0,
          860.0,
          859.0,
          860.0,
          859.0,
          858.0,
          858.0,
          858.0,
          858.0,
          858.0,
          858.0,
          858.0,
          858.0,
          858.0,
          859.0,
          859.0,
          859.0,
          858.0,
          860.0,
          860.0,
          859.0,
          859.0,
          858.0,
          858.0,
          860.0,
          861.0,
          858.0,
          858.0,
          857.0,
          857.0,
          857.0,
          858.0,
          859.0,
          857.0,
          857.0,
          859.0,
          860.0,
          861.0,
          859.0,
          858.0,
          856.0,
          856.0,
          856.0,
          856.0,
          856.0,
          857.0,
          858.0,
          858.0,
          858.0,
          858.0,
          857.0,
          857.0,
          858.0,
          859.0,
          860.0,
          859.0,
          858.0,
          859.0,
          859.0,
          859.0,
          858.0,
          859.0,
          858.0,
          858.0,
          858.0,
          858.0,
          859.0,
          861.0,
          861.0,
          858.0,
          857.0,
          858.0,
          857.0,
          858.0,
          859.0,
          859.0,
          859.0,
          858.0,
          859.0,
          859.0,
          859.0,
          860.0,
          859.0,
          859.0,
          859.0,
          858.0,
          858.0,
          859.0,
          859.0,
          858.0,
          858.0,
          858.0,
          859.0,
          859.0,
          858.0,
          858.0,
          858.0,
          857.0,
          858.0,
          859.0,
          861.0,
          860.0,
          860.0,
          858.0,
          857.0,
          858.0,
          858.0,
          859.0,
          859.0,
          859.0,
          858.0,
          857.0,
          859.0,
          860.0,
          859.0,
          858.0,
          858.0,
          860.0,
          862.0,
          862.0,
          861.0,
          859.0,
          858.0,
          858.0,
          858.0,
          857.0,
          857.0,
          858.0,
          858.0,
          857.0,
          859.0,
          862.0,
          862.0,
          863.0,
          862.0,
          858.0,
          857.0,
          856.0,
          857.0,
          857.0,
          857.0,
          858.0,
          861.0,
          862.0,
          860.0,
          859.0,
          858.0,
          858.0
        ],
        "WindowWidth": [
          1948.0,
          1944.0,
          1945.0,
          1947.0,
          1945.0,
          1947.0,
          1944.0,
          1942.0,
          1942.0,
          1940.0,
          1940.0,
          1942.0,
          1943.0,
          1941.0,
          1940.0,
          1943.0,
          1945.0,
          1947.0,
          1946.0,
          1943.0,
          1948.0,
          1950.0,
          1945.0,
          1944.0,
          1941.0,
          1942.0,
          1949.0,
          1952.0,
          1942.0,
          1939.0,
          1937.0,
          1936.0,
          1940.0,
          1943.0,
          1944.0,
          1938.0,
          1939.0,
          1945.0,
          1950.0,
          1953.0,
          1945.0,
          1939.0,
          1935.0,
          1934.0,
          1935.0,
          1933.0,
          1935.0,
          1938.0,
          1940.0,
          1943.0,
          1942.0,
          1940.0,
          1938.0,
          1936.0,
          1943.0,
          1944.0,
          1948.0,
          1943.0,
          1943.0,
          1944.0,
          1946.0,
          1946.0,
          1943.0,
          1943.0,
          1942.0,
          1943.0,
          1940.0,
          1941.0,
          1945.0,
          1954.0,
          1952.0,
          1941.0,
          1938.0,
          1939.0,
          1939.0,
          1941.0,
          1944.0,
          1943.0,
          1943.0,
          1943.0,
          1944.0,
          1943.0,
          1946.0,
          1948.0,
          1944.0,
          1944.0,
          1943.0,
          1942.0,
          1941.0,
          1943.0,
          1945.0,
          1942.0,
          1940.0,
          1943.0,
          1943.0,
          1944.0,
          1940.0,
          1941.0,
          1939.0,
          1939.0,
          1940.0,
          1946.0,
          1951.0,
          1949.0,
          1947.0,
          1942.0,
          1939.0,
          1941.0,
          1942.0,
          1945.0,
          1944.0,
          1944.0,
          1942.0,
          1939.0,
          1944.0,
          1948.0,
          1944.0,
          1940.0,
          1942.0,
          1950.0,
          1956.0,
          1956.0,
          1948.0,
          1943.0,
          1939.0,
          1940.0,
          1939.0,
          1938.0,
          1939.0,
          1942.0,
          1939.0,
          1939.0,
          1947.0,
          1955.0,
          1958.0,
          1960.0,
          1953.0,
          1940.0,
          1937.0,
          1933.0,
          1936.0,
          1938.0,
          1937.0,
          1940.0,
          1950.0,
          1953.0,
          1947.0,
          1944.0,
          1942.0,
          1941.0
        ]
      },
      "slices": {}
    }
  },
  "dummy_trs": 0,
  "dvars_nstd": 79.61354141697991,
  "dvars_std": 1.07537637966443,
  "dvars_vstd": 1.0102150785234905,
  "efc": 0.5781744819902821,
  "fber": 255.18313598632812,
  "fd_mean": 0.062394783784406126,
  "fd_num": 1,
  "fd_perc": 0.6666666666666666,
  "fwhm_avg": 2.8893736949025257,
  "fwhm_x": 2.5461313443315015,
  "fwhm_y": 2.920798900669109,
  "fwhm_z": 3.201190839706966,
  "gcor": 0.00242372,
  "gsr_x": -0.03158870339393616,
  "gsr_y": 0.06222456693649292,
  "provenance": {
    "md5sum": "54ca3d9d66419afb182020e762c93fea",
    "settings": {
      "fd_thres": 0.2,
      "testing": false
    },
    "software": "mriqc",
    "version": "22.0.6",
    "webapi_port": null,
    "webapi_url": "https://mriqc.nimh.nih.gov/api/v1"
  },
  "size_t": 150,
  "size_x": 188,
  "size_y": 188,
  "size_z": 46,
  "snr": 2.0979172192889184,
  "spacing_tr": 2.5999999046325684,
  "spacing_x": 1.0957447290420532,
  "spacing_y": 1.0957447290420532,
  "spacing_z": 1.100000023841858,
  "summary_bg_k": 26.660720717481986,
  "summary_bg_mad": 29.167725986401145,
  "summary_bg_mean": 88.33878326416016,
  "summary_bg_median": 55.34000015258789,
  "summary_bg_n": 1029945.0,
  "summary_bg_p05": 31.760000228881836,
  "summary_bg_p95": 260.7853454589839,
