{
  "aor": 0.0010000671140939596,
  "aqi": 0.013797490604026845,
  "bids_meta": {
    "AcquisitionMatrixPE": 188,
    "AcquisitionNumber": 1,
    "AcquisitionTime": "19:14:54.710000",
    "BandwidthPerPixelPhaseEncode": 19.46,
    "BaseResolution": 188,
    "CogAtlasID": "TODO",
    "ConversionSoftware": "dcm2niix",
    "ConversionSoftwareVersion": "v1.0.20180606 GCC4.8.5",
    "DelayTime": 1.2,
    "DerivedVendorReportedEchoSpacing": 0.000820013,
    "DeviceSerialNumber": "18930",
    "DwellTime": 1.9e-06,
    "EchoTime": 0.02,
    "EffectiveEchoSpacing": 0.000273338,
    "FlipAngle": 80,
    "ImageComments": "Unaliased_MB2_PE2",
    "ImageOrientationPatientDICOM": [
      0.999248,
      0.020497,
      -0.0329253,
      -0.0374194,
      0.286299,
      -0.957409
    ],
    "ImageType": [
      "ORIGINAL",
      "PRIMARY",
      "M",
      "MB",
      "ND",
      "MOSAIC"
    ],
    "InPlanePhaseEncodingDirectionDICOM": "COL",
    "InstitutionAddress": "Oxfordlaan_55_Maastricht_753AAF_Limburg_NL_6229_EV",
    "InstitutionName": "Scannexus",
    "InstitutionalDepartmentName": "MRI_7T",
    "MRAcquisitionType": "2D",
    "MagneticFieldStrength": 6.98,
    "Manufacturer": "Siemens",
    "ManufacturersModelName": "Investigational_Device_7T",
    "Modality": "MR",
    "MultibandAccelerationFactor": 2,
    "ParallelReductionFactorInPlane": 3,
    "PartialFourier": 0.75,
    "PatientPosition": "HFS",
    "PercentPhaseFOV": 100,
    "PhaseEncodingDirection": "j",
    "PhaseEncodingSteps": 141,
    "PhaseResolution": 1,
    "PixelBandwidth": 1400,
    "ProcedureStepDescription": "FeDem_Faruk",
    "ProtocolName": "cmrr_mbep2d_bold_AP_run6",
    "PulseSequenceDetails": "%CustomerSeq%_cmrr_mbep2d_bold",
    "ReceiveCoilName": "32Ch_Head_7T",
    "ReconMatrixPE": 188,
    "RepetitionTime": 2.6,
    "SAR": 0.0593158,
    "ScanOptions": "PFP_FS",
    "ScanningSequence": "EP",
    "SequenceName": "epfid2d1_188",
    "SequenceVariant": "SK_SS",
    "SeriesDescription": "cmrr_mbep2d_bold_AP_run6",
    "SeriesNumber": 17,
    "ShimSetting": [
      117,
      -256,
      552,
      270,
      8,
      -144,
      276,
      73
    ],
    "SliceThickness": 1.1,
    "SliceTiming": [
      0,
      0.7325,
      0.06,
      0.7925,
      0.12,
      0.855,
      0.1825,
      0.915,
      0.2425,
      0.9775,
      0.305,
      1.0375,
      0.365,
      1.0975,
      0.4275,
      1.16,
      0.4875,
      1.22,
      0.5475,
      1.2825,
      0.61,
      1.3425,
      0.67,
      0,
      0.7325,
      0.06,
      0.7925,
      0.12,
      0.855,
      0.1825,
      0.915,
      0.2425,
      0.9775,
      0.305,
      1.0375,
      0.365,
      1.0975,
      0.4275,
      1.16,
      0.4875,
      1.22,
      0.5475,
      1.2825,
      0.61,
      1.3425,
      0.67
    ],
    "SoftwareVersions": "syngo_MR_B17",
    "SpacingBetweenSlices": 1.1,
    "StationName": "MRC18930",
    "TaskName": "auditory",
    "TotalReadoutTime": 0.0511141,
    "TxRefAmp": 210,
    "dataset": "ds001942",
    "dcmmeta_affine": [
      [
        -1.09492027759552,
        -0.04100212827324867,
        0.011217254213988781,
        102.66847229003906
      ],
      [
        -0.02245943620800972,
        0.31371042132377625,
        -1.0537132024765015,
        22.232385635375977
      ],
      [
        -0.03607774153351784,
        1.0490763187408447,
        0.31553545594215393,
        -109.380859375
      ],
      [
        0.0,
        0.0,
        0.0,
        1.0
      ]
    ],
    "dcmmeta_reorient_transform": [
      [
        0.0,
        -1.0,
        0.0,
        187.0
      ],
      [
        1.0,
        0.0,
        0.0,
        0.0
      ],
      [
        0.0,
        0.0,
        1.0,
        0.0
      ],
      [
        0.0,
        0.0,
        0.0,
        1.0
      ]
    ],
    "dcmmeta_shape": [
      188,
      188,
      46,
      150
    ],
    "dcmmeta_slice_dim": 2,
    "dcmmeta_version": 0.6,
    "global": {
      "const": {
        "AcquisitionMatrix": [
          188,
          0,
          0,
          188
        ],
        "AngioFlag": "N",
        "BitsAllocated": 16,
        "BitsStored": 12,
        "Columns": 1316,
        "EchoNumbers": 1,
        "EchoTime": 20.0,
        "EchoTrainLength": 1,
        "FlipAngle": 80.0,
        "HighBit": 11,
        "ImageOrientationPatient": [
          0.99924761605585,
          0.02049696029164,
          -0.0329253158756,
          -0.0374194164785,
          0.28629882111884,
          -0.9574094068351
        ],
        "ImagePositionPatient": [
          -689.41092549423,
          -270.49603658848,
          698.82329381524
        ],
        "ImageType": [
          "ORIGINAL",
          "PRIMARY",
          "M",
          "MB",
          "ND",
          "MOSAIC"
        ],
        "ImagedNucleus": "1H",
        "ImagingFrequency": 297.20552,
        "InPlanePhaseEncodingDirection": "COL",
        "LargestImagePixelValue": 4095,
        "MRAcquisitionType": "2D",
        "MagneticFieldStrength": 6.98,
        "Manufacturer": "SIEMENS",
        "ManufacturerModelName": "Investigational_Device_7T",
        "Modality": "MR",
        "NumberOfAverages": 1.0,
        "NumberOfPhaseEncodingSteps": 141,
        "PercentPhaseFieldOfView": 100.0,
        "PercentSampling": 100.0,
        "PerformedProcedureStepStartTime": "181136.593000",
        "PhotometricInterpretation": "MONOCHROME2",
        "PixelBandwidth": 1400.0,
        "PixelRepresentation": 0,
        "PixelSpacing": [
          1.0957447290421,
          1.0957447290421
        ],
        "ProtocolName": "cmrr_mbep2d_bold_AP_run6",
        "RepetitionTime": 2600.0,
        "Rows": 1316,
        "SAR": 0.05931582806158,
        "SamplesPerPixel": 1,
        "ScanOptions": [
          "PFP",
          "FS"
        ],
        "ScanningSequence": "EP",
        "SequenceName": "epfid2d1_188",
        "SequenceVariant": [
          "SK",
          "SS"
        ],
        "SeriesDescription": "cmrr_mbep2d_bold_AP_run6",
        "SeriesNumber": 17,
        "SeriesTime": "191503.343000",
        "SliceLocation": -51.625853746699,
        "SliceThickness": 1.1000000238419,
        "SmallestImagePixelValue": 0,
        "SoftwareVersions": "syngo MR B17",
        "SpacingBetweenSlices": 1.1000000357126,
        "SpecificCharacterSet": "ISO_IR 100",
        "StudyID": "1",
        "StudyTime": "181136.484000",
        "TransmitCoilName": "32Ch_Head_7T",
        "VariableFlipAngleFlag": "N",
        "WindowCenterWidthExplanation": "Algo1",
        "dBdt": 0.0
      },
      "slices": {}
    },
    "modality": "bold",
    "run_id": 6,
    "session_id": "SES03",
    "subject_id": "S06",
    "task_id": "auditory",
    "time": {
      "samples": {
        "AcquisitionNumber": [
          1,
          2,
          3,
          4,
          5,
          6,
          7,
          8,
          9,
          10,
          11,
          12,
          13,
          14,
          15,
          16,
          17,
          18,
          19,
          20,
          21,
          22,
          23,
          24,
          25,
          26,
          27,
          28,
          29,
          30,
          31,
          32,
          33,
          34,
          35,
          36,
          37,
          38,
          39,
          40,
          41,
          42,
          43,
          44,
          45,
          46,
          47,
          48,
          49,
          50,
          51,
          52,
          53,
          54,
          55,
          56,
          57,
          58,
          59,
          60,
          61,
          62,
          63,
          64,
          65,
          66,
          67,
          68,
          69,
          70,
          71,
          72,
          73,
          74,
          75,
          76,
          77,
          78,
          79,
          80,
          81,
          82,
          83,
          84,
          85,
          86,
          87,
          88,
          89,
          90,
          91,
          92,
          93,
          94,
          95,
          96,
          97,
          98,
          99,
          100,
          101,
          102,
          103,
          104,
          105,
          106,
          107,
          108,
          109,
          110,
          111,
          112,
          113,
          114,
          115,
          116,
          117,
          118,
          119,
          120,
          121,
          122,
          123,
          124,
          125,
          126,
          127,
          128,
          129,
          130,
          131,
          132,
          133,
          134,
          135,
          136,
          137,
          138,
          139,
          140,
          141,
          142,
          143,
          144,
          145,
          146,
          147,
          148,
          149,
          150
        ],
        "AcquisitionTime": [
          "191454.710000",
          "191457.320000",
          "191459.930000",
          "191502.540000",
          "191505.150000",
          "191507.760000",
          "191510.372500",
          "191512.982500",
          "191515.592500",
          "191518.202500",
          "191520.812500",
          "191523.422500",
          "191526.035000",
          "191528.645000",
          "191531.255000",
          "191533.865000",
          "191536.475000",
          "191539.087500",
          "191541.697500",
          "191544.307500",
          "191546.917500",
          "191549.527500",
          "191552.137500",
          "191554.750000",
          "191557.360000",
          "191559.970000",
          "191602.580000",
          "191605.190000",
          "191607.800000",
          "191610.412500",
          "191613.022500",
          "191615.632500",
          "191618.242500",
          "191620.852500",
          "191623.465000",
          "191626.075000",
          "191628.685000",
          "191631.295000",
          "191633.905000",
          "191636.515000",
          "191639.127500",
          "191641.737500",
          "191644.347500",
          "191646.957500",
          "191649.567500",
          "191652.177500",
          "191654.790000",
          "191657.400000",
          "191700.010000",
          "191702.620000",
          "191705.230000",
          "191707.842500",
          "191710.452500",
          "191713.062500",
          "191715.672500",
          "191718.282500",
          "191720.892500",
          "191723.505000",
          "191726.115000",
          "191728.725000",
          "191731.335000",
          "191733.945000",
          "191736.555000",
          "191739.167500",
          "191741.777500",
          "191744.387500",
          "191746.997500",
          "191749.607500",
          "191752.220000",
          "191754.830000",
          "191757.440000",
          "191800.050000",
          "191802.660000",
          "191805.270000",
          "191807.882500",
          "191810.492500",
          "191813.102500",
          "191815.712500",
          "191818.322500",
          "191820.932500",
          "191823.545000",
          "191826.155000",
          "191828.765000",
          "191831.375000",
          "191833.985000",
          "191836.597500",
          "191839.207500",
          "191841.817500",
          "191844.427500",
          "191847.037500",
          "191849.647500",
          "191852.260000",
          "191854.870000",
          "191857.480000",
          "191900.090000",
          "191902.700000",
          "191905.310000",
          "191907.922500",
          "191910.532500",
          "191913.142500",
          "191915.752500",
          "191918.362500",
          "191920.975000",
          "191923.585000",
          "191926.195000",
          "191928.805000",
          "191931.415000",
          "191934.025000",
          "191936.637500",
          "191939.247500",
          "191941.857500",
          "191944.467500",
          "191947.077500",
          "191949.687500",
          "191952.300000",
          "191954.910000",
          "191957.520000",
          "192000.130000",
          "192002.740000",
          "192005.352500",
          "192007.962500",
          "192010.572500",
          "192013.182500",
          "192015.792500",
          "192018.402500",
          "192021.015000",
          "192023.625000",
          "192026.235000",
          "192028.845000",
          "192031.455000",
          "192034.065000",
          "192036.677500",
          "192039.287500",
          "192041.897500",
          "192044.507500",
          "192047.117500",
          "192049.730000",
          "192052.340000",
          "192054.950000",
          "192057.560000",
          "192100.170000",
          "192102.780000",
          "192105.392500",
          "192108.002500",
          "192110.612500",
          "192113.222500",
          "192115.832500",
          "192118.442500",
          "192121.055000",
          "192123.665000"
        ],
        "ContentTime": [
          "191503.359000",
          "191503.828000",
          "191504.328000",
          "191506.828000",
          "191509.328000",
          "191511.828000",
          "191514.828000",
          "191517.328000",
          "191519.828000",
          "191522.328000",
          "191525.328000",
          "191527.828000",
          "191530.328000",
          "191532.828000",
          "191535.328000",
          "191538.328000",
          "191540.828000",
          "191543.328000",
          "191545.828000",
          "191548.328000",
          "191551.328000",
          "191553.828000",
          "191556.328000",
          "191558.828000",
          "191601.328000",
          "191603.828000",
          "191606.828000",
          "191609.328000",
          "191611.828000",
          "191614.328000",
          "191616.828000",
          "191619.828000",
          "191622.328000",
          "191624.828000",
          "191627.328000",
          "191629.828000",
          "191632.828000",
          "191635.328000",
          "191637.828000",
          "191640.328000",
          "191642.828000",
          "191645.828000",
          "191648.328000",
          "191650.828000",
          "191653.328000",
          "191655.828000",
          "191658.828000",
          "191701.328000",
          "191703.828000",
          "191706.328000",
          "191708.828000",
          "191711.828000",
          "191714.328000",
          "191716.828000",
          "191719.328000",
          "191721.828000",
          "191724.828000",
          "191727.328000",
          "191729.828000",
          "191732.328000",
          "191734.828000",
          "191737.828000",
          "191740.328000",
          "191742.828000",
          "191745.328000",
          "191748.328000",
          "191750.828000",
          "191753.328000",
          "191755.828000",
          "191758.328000",
          "191800.828000",
          "191803.828000",
          "191806.328000",
          "191808.828000",
          "191811.328000",
          "191814.328000",
          "191816.828000",
          "191819.328000",
          "191821.828000",
          "191824.328000",
          "191826.828000",
          "191829.828000",
          "191832.328000",
          "191834.828000",
          "191837.328000",
          "191839.828000",
          "191842.828000",
          "191845.328000",
          "191847.828000",
          "191850.328000",
          "191852.828000",
          "191855.828000",
          "191858.328000",
          "191900.828000",
          "191903.328000",
          "191905.828000",
          "191908.828000",
          "191911.328000",
          "191913.828000",
          "191916.328000",
          "191918.828000",
          "191921.828000",
          "191924.328000",
          "191926.828000",
          "191929.328000",
          "191931.828000",
          "191934.828000",
          "191937.328000",
          "191939.828000",
          "191942.328000",
          "191944.828000",
          "191947.828000",
          "191950.328000",
          "191952.828000",
          "191955.328000",
          "191958.328000",
          "192000.828000",
          "192003.328000",
          "192005.828000",
          "192008.328000",
          "192011.328000",
          "192013.828000",
          "192016.328000",
          "192018.828000",
          "192021.328000",
          "192023.828000",
          "192026.828000",
          "192029.328000",
          "192031.828000",
          "192034.328000",
          "192036.828000",
          "192039.828000",
          "192042.328000",
          "192044.828000",
          "192047.328000",
          "192049.828000",
          "192052.828000",
          "192055.328000",
          "192057.828000",
          "192100.328000",
          "192103.328000",
          "192105.828000",
          "192108.328000",
          "192110.828000",
          "192113.328000",
          "192115.828000",
          "192118.828000",
          "192121.328000",
          "192123.828000",
          "192131.218000"
        ],
        "InstanceCreationTime": [
          "191503.359000",
          "191503.828000",
          "191504.328000",
          "191506.828000",
          "191509.328000",
          "191511.828000",
          "191514.828000",
          "191517.328000",
          "191519.828000",
          "191522.328000",
          "191525.328000",
          "191527.828000",
          "191530.328000",
          "191532.828000",
          "191535.328000",
          "191538.328000",
          "191540.828000",
          "191543.328000",
          "191545.828000",
          "191548.328000",
          "191551.328000",
          "191553.828000",
          "191556.328000",
          "191558.828000",
          "191601.328000",
          "191603.828000",
          "191606.828000",
          "191609.328000",
          "191611.828000",
          "191614.328000",
          "191616.828000",
          "191619.828000",
          "191622.328000",
          "191624.828000",
          "191627.328000",
          "191629.828000",
          "191632.828000",
          "191635.328000",
          "191637.828000",
          "191640.328000",
          "191642.828000",
          "191645.828000",
          "191648.328000",
          "191650.828000",
          "191653.328000",
          "191655.828000",
          "191658.828000",
          "191701.328000",
          "191703.828000",
          "191706.328000",
          "191708.828000",
          "191711.828000",
          "191714.328000",
          "191716.828000",
          "191719.328000",
          "191721.828000",
          "191724.828000",
          "191727.328000",
          "191729.828000",
          "191732.328000",
          "191734.828000",
          "191737.828000",
          "191740.328000",
          "191742.828000",
          "191745.328000",
          "191748.328000",
          "191750.828000",
          "191753.328000",
          "191755.828000",
          "191758.328000",
          "191800.828000",
          "191803.828000",
          "191806.328000",
          "191808.828000",
          "191811.328000",
          "191814.328000",
          "191816.828000",
          "191819.328000",
          "191821.828000",
          "191824.328000",
          "191826.828000",
          "191829.828000",
          "191832.328000",
          "191834.828000",
          "191837.328000",
          "191839.828000",
          "191842.828000",
          "191845.328000",
          "191847.828000",
          "191850.328000",
          "191852.828000",
          "191855.828000",
          "191858.328000",
          "191900.828000",
          "191903.328000",
          "191905.828000",
          "191908.828000",
          "191911.328000",
          "191913.828000",
          "191916.328000",
          "191918.828000",
          "191921.828000",
          "191924.328000",
          "191926.828000",
          "191929.328000",
          "191931.828000",
          "191934.828000",
          "191937.328000",
          "191939.828000",
          "191942.328000",
          "191944.828000",
          "191947.828000",
          "191950.328000",
          "191952.828000",
          "191955.328000",
          "191958.328000",
          "192000.828000",
          "192003.328000",
          "192005.828000",
          "192008.328000",
          "192011.328000",
          "192013.828000",
          "192016.328000",
          "192018.828000",
          "192021.328000",
          "192023.828000",
          "192026.828000",
          "192029.328000",
          "192031.828000",
          "192034.328000",
          "192036.828000",
          "192039.828000",
          "192042.328000",
          "192044.828000",
          "192047.328000",
          "192049.828000",
          "192052.828000",
          "192055.328000",
          "192057.828000",
          "192100.328000",
          "192103.328000",
          "192105.828000",
          "192108.328000",
          "192110.828000",
          "192113.328000",
          "192115.828000",
          "192118.828000",
          "192121.328000",
          "192123.828000",
          "192131.218000"
        ],
        "InstanceNumber": [
          1,
          2,
          3,
          4,
          5,
          6,
          7,
          8,
          9,
          10,
          11,
          12,
          13,
          14,
          15,
          16,
          17,
          18,
          19,
          20,
          21,
          22,
          23,
          24,
          25,
          26,
          27,
          28,
          29,
          30,
          31,
          32,
          33,
          34,
          35,
          36,
          37,
          38,
          39,
          40,
          41,
          42,
          43,
          44,
          45,
          46,
          47,
          48,
          49,
          50,
          51,
          52,
          53,
          54,
          55,
          56,
          57,
          58,
          59,
          60,
          61,
          62,
          63,
          64,
          65,
          66,
          67,
          68,
          69,
          70,
          71,
          72,
          73,
          74,
          75,
          76,
          77,
          78,
          79,
          80,
          81,
          82,
          83,
          84,
          85,
          86,
          87,
          88,
          89,
          90,
          91,
          92,
          93,
          94,
          95,
          96,
          97,
          98,
          99,
          100,
          101,
          102,
          103,
          104,
          105,
          106,
          107,
          108,
          109,
          110,
          111,
          112,
          113,
          114,
          115,
          116,
          117,
          118,
          119,
          120,
          121,
          122,
          123,
          124,
          125,
          126,
          127,
          128,
          129,
          130,
          131,
          132,
          133,
          134,
          135,
          136,
          137,
          138,
          139,
          140,
          141,
          142,
          143,
          144,
          145,
          146,
          147,
          148,
          149,
          150
        ],
        "WindowCenter": [
          859.0,
          858.0,
          858.0,
          856.0,
          857.0,
          857.0,
          858.0,
          857.0,
          856.0,
          855.0,
          855.0,
          855.0,
          856.0,
          856.0,
          856.0,
          855.0,
          855.0,
          855.0,
          855.0,
          856.0,
          856.0,
          855.0,
          855.0,
          854.0,
          855.0,
          855.0,
          855.0,
          855.0,
          856.0,
          855.0,
          855.0,
          856.0,
          855.0,
          854.0,
          855.0,
          856.0,
          854.0,
          855.0,
          856.0,
          855.0,
          854.0,
          855.0,
          854.0,
          854.0,
          854.0,
          854.0,
          854.0,
          855.0,
          855.0,
          856.0,
          855.0,
          854.0,
          854.0,
          856.0,
          856.0,
          855.0,
          855.0,
          855.0,
          855.0,
          855.0,
          857.0,
          855.0,
          854.0,
          855.0,
          856.0,
          857.0,
          856.0,
          856.0,
          855.0,
          854.0,
          854.0,
          855.0,
          855.0,
          855.0,
          856.0,
          856.0,
          855.0,
          855.0,
          855.0,
          856.0,
          856.0,
          856.0,
          855.0,
          855.0,
          856.0,
          856.0,
          856.0,
          857.0,
          857.0,
          857.0,
          855.0,
          855.0,
          855.0,
          856.0,
          856.0,
          855.0,
          856.0,
          855.0,
          855.0,
          856.0,
          856.0,
          856.0,
          857.0,
          857.0,
          858.0,
          856.0,
          855.0,
          855.0,
          854.0,
          855.0,
          855.0,
          856.0,
          855.0,
          855.0,
          856.0,
          855.0,
          855.0,
          854.0,
          855.0,
          856.0,
          856.0,
          856.0,
          856.0,
          856.0,
          857.0,
          857.0,
          856.0,
          855.0,
          855.0,
          855.0,
          855.0,
          854.0,
          855.0,
          856.0,
          856.0,
          856.0,
          855.0,
          856.0,
          855.0,
          855.0,
          856.0,
          855.0,
          855.0,
          856.0,
          857.0,
          858.0,
          856.0,
          856.0,
          855.0,
          856.0
        ],
        "WindowWidth": [
          1944.0,
          1942.0,
          1942.0,
          1937.0,
          1938.0,
          1941.0,
          1943.0,
          1940.0,
          1935.0,
          1932.0,
          1934.0,
          1933.0,
          1935.0,
          1937.0,
          1934.0,
          1934.0,
          1933.0,
          1933.0,
          1934.0,
          1937.0,
          1936.0,
          1932.0,
          1932.0,
          1931.0,
          1934.0,
          1933.0,
          1934.0,
          1934.0,
          1937.0,
          1931.0,
          1933.0,
          1936.0,
          1935.0,
          1931.0,
          1935.0,
          1935.0,
          1931.0,
          1932.0,
          1936.0,
          1931.0,
          1929.0,
          1932.0,
          1930.0,
          1930.0,
          1929.0,
          1929.0,
          1930.0,
          1932.0,
          1935.0,
          1937.0,
          1933.0,
          1929.0,
          1931.0,
          1936.0,
          1937.0,
          1934.0,
          1934.0,
          1933.0,
          1933.0,
          1934.0,
          1939.0,
          1933.0,
          1930.0,
          1933.0,
          1937.0,
          1942.0,
          1936.0,
          1935.0,
          1931.0,
          1930.0,
          1930.0,
          1933.0,
          1931.0,
          1931.0,
          1935.0,
          1936.0,
          1932.0,
          1933.0,
          1934.0,
          1936.0,
          1935.0,
          1935.0,
          1933.0,
          1932.0,
          1937.0,
          1937.0,
          1937.0,
          1940.0,
          1939.0,
          1939.0,
          1932.0,
          1933.0,
          1933.0,
          1937.0,
          1936.0,
          1933.0,
          1935.0,
          1933.0,
          1935.0,
          1935.0,
          1936.0,
          1936.0,
          1941.0,
          1942.0,
          1942.0,
          1935.0,
          1933.0,
          1932.0,
          1931.0,
          1933.0,
          1935.0,
          1936.0,
          1933.0,
          1934.0,
          1935.0,
          1935.0,
          1933.0,
          1930.0,
          1933.0,
          1935.0,
          1938.0,
          1938.0,
          1937.0,
          1938.0,
          1941.0,
          1938.0,
          1936.0,
          1933.0,
          1935.0,
          1934.0,
          1933.0,
          1930.0,
          1932.0,
          1936.0,
          1934.0,
          1934.0,
          1934.0,
          1935.0,
          1932.0,
          1934.0,
          1935.0,
          1933.0,
          1932.0,
          1936.0,
          1941.0,
          1941.0,
          1936.0,
          1936.0,
          1932.0,
          1935.0
        ]
      },
      "slices": {}
    }
  },
  "dummy_trs": 1,
  "dvars_nstd": 79.65057006999999,
  "dvars_std": 1.081740810067567,
  "dvars_vstd": 1.0151759638513511,
  "efc": 0.577692293982395,
  "fber": 258.7247619628906,
  "fd_mean": 0.05477200542591687,
  "fd_num": 0,
  "fd_perc": 0.0,
  "fwhm_avg": 2.8760350663883636,
  "fwhm_x": 2.539669985392372,
  "fwhm_y": 2.8996534647058843,
  "fwhm_z": 3.1887817490668353,
  "gcor": 0.00143316,
  "gsr_x": -0.03105946257710457,
  "gsr_y": 0.06112216040492058,
  "provenance": {
    "md5sum": "e8fbd31f972daf923aac5049eafc2bf3",
    "settings": {
      "fd_thres": 0.2,
      "testing": false
    },
    "software": "mriqc",
    "version": "22.0.6",
    "webapi_port": null,
    "webapi_url": "https://mriqc.nimh.nih.gov/api/v1"
  },
  "size_t": 149,
  "size_x": 188,
  "size_y": 188,
  "size_z": 46,
  "snr": 2.1016641970892853,
  "spacing_tr": 2.5999999046325684,
  "spacing_x": 1.0957447290420532,
  "spacing_y": 1.0957447290420532,
  "spacing_z": 1.100000023841858,
  "summary_bg_k": 26.489761973420425,
  "summary_bg_mad": 28.557506540731353,
  "summary_bg_mean": 86.55321502685547,
  "summary_bg_median": 54.563758850097656,
  "summary_bg_n": 1028986.0,
  "summary_bg_p05": 31.597314834594727,
  "summary_bg_p95": 252.90603637695312,
