{
  "aor": 0.0005994907407407407,
  "aqi": 0.014337951851851851,
  "bids_meta": {
    "AcquisitionMatrixPE": 188,
    "AcquisitionNumber": 1,
    "AcquisitionTime": "15:09:37.247500",
    "BandwidthPerPixelPhaseEncode": 19.46,
    "BaseResolution": 188,
    "CogAtlasID": "TODO",
    "ConversionSoftware": "dcm2niix",
    "ConversionSoftwareVersion": "v1.0.20180606 GCC4.8.5",
    "DelayTime": 1.2,
    "DerivedVendorReportedEchoSpacing": 0.000820013,
    "DeviceSerialNumber": "18930",
    "DwellTime": 1.9e-06,
    "EchoTime": 0.02,
    "EffectiveEchoSpacing": 0.000273338,
    "FlipAngle": 80,
    "ImageComments": "Unaliased_MB2_PE2",
    "ImageOrientationPatientDICOM": [
      0.997821,
      0.028021,
      -0.0597332,
      -0.06312,
      0.14179,
      -0.987882
    ],
    "ImageType": [
      "ORIGINAL",
      "PRIMARY",
      "M",
      "MB",
      "ND",
      "MOSAIC"
    ],
    "InPlanePhaseEncodingDirectionDICOM": "COL",
    "InstitutionAddress": "Oxfordlaan_55_Maastricht_Limburg_NL_6229_EV",
    "InstitutionName": "Scannexus",
    "InstitutionalDepartmentName": "MRI_7T",
    "MRAcquisitionType": "2D",
    "MagneticFieldStrength": 6.98,
    "Manufacturer": "Siemens",
    "ManufacturersModelName": "Investigational_Device_7T",
    "Modality": "MR",
    "MultibandAccelerationFactor": 2,
    "ParallelReductionFactorInPlane": 3,
    "PartialFourier": 0.75,
    "PatientPosition": "HFS",
    "PercentPhaseFOV": 100,
    "PhaseEncodingDirection": "j",
    "PhaseEncodingSteps": 141,
    "PhaseResolution": 1,
    "PixelBandwidth": 1400,
    "ProcedureStepDescription": "FeDem_Faruk",
    "ProtocolName": "cmrr_mbep2d_bold_AP_run2",
    "PulseSequenceDetails": "%CustomerSeq%_cmrr_mbep2d_bold",
    "ReceiveCoilName": "32Ch_Head_7T",
    "ReconMatrixPE": 188,
    "RepetitionTime": 2.6,
    "SAR": 0.0931298,
    "ScanOptions": "PFP_FS",
    "ScanningSequence": "EP",
    "SequenceName": "epfid2d1_188",
    "SequenceVariant": "SK_SS",
    "SeriesDescription": "cmrr_mbep2d_bold_AP_run2",
    "SeriesNumber": 11,
    "ShimSetting": [
      100,
      -161,
      486,
      430,
      -28,
      -229,
      -278,
      176
    ],
    "SliceThickness": 1.1,
    "SliceTiming": [
      0,
      0.7325,
      0.06,
      0.795,
      0.1225,
      0.855,
      0.1825,
      0.915,
      0.245,
      0.9775,
      0.305,
      1.0375,
      0.365,
      1.1,
      0.4275,
      1.16,
      0.4875,
      1.2225,
      0.55,
      1.2825,
      0.61,
      1.345,
      0.6725,
      0,
      0.7325,
      0.06,
      0.795,
      0.1225,
      0.855,
      0.1825,
      0.915,
      0.245,
      0.9775,
      0.305,
      1.0375,
      0.365,
      1.1,
      0.4275,
      1.16,
      0.4875,
      1.2225,
      0.55,
      1.2825,
      0.61,
      1.345,
      0.6725
    ],
    "SoftwareVersions": "syngo_MR_B17",
    "SpacingBetweenSlices": 1.1,
    "StationName": "MRC18930",
    "TaskName": "auditory",
    "TotalReadoutTime": 0.0511141,
    "TxRefAmp": 245,
    "dataset": "ds001942",
    "dcmmeta_affine": [
      [
        -1.0933570861816406,
        -0.06916341930627823,
        0.021133068948984146,
        104.83399200439453
      ],
      [
        -0.030703885480761528,
        0.1553657054901123,
        -1.088449239730835,
        33.75456619262695
      ],
      [
        -0.06545233726501465,
        1.0824668407440186,
        0.15757465362548828,
        -118.5897445678711
      ],
      [
        0.0,
        0.0,
        0.0,
        1.0
      ]
    ],
    "dcmmeta_reorient_transform": [
      [
        0.0,
        -1.0,
        0.0,
        187.0
      ],
      [
        1.0,
        0.0,
        0.0,
        0.0
      ],
      [
        0.0,
        0.0,
        1.0,
        0.0
      ],
      [
        0.0,
        0.0,
        0.0,
        1.0
      ]
    ],
    "dcmmeta_shape": [
      188,
      188,
      46,
      216
    ],
    "dcmmeta_slice_dim": 2,
    "dcmmeta_version": 0.6,
    "global": {
      "const": {
        "AcquisitionMatrix": [
          188,
          0,
          0,
          188
        ],
        "AngioFlag": "N",
        "BitsAllocated": 16,
        "BitsStored": 12,
        "Columns": 1316,
        "EchoNumbers": 1,
        "EchoTime": 20.0,
        "EchoTrainLength": 1,
        "FlipAngle": 80.0,
        "HighBit": 11,
        "ImageOrientationPatient": [
          0.99782100966385,
          0.02802101971216,
          -0.0597331995436,
          -0.0631200106673,
          0.1417900610645,
          -0.9878823021174
        ],
        "ImagePositionPatient": [
          -669.54567872493,
          -167.7512079547,
          731.25795682871
        ],
        "ImageType": [
          "ORIGINAL",
          "PRIMARY",
          "M",
          "MB",
          "ND",
          "MOSAIC"
        ],
        "ImagedNucleus": "1H",
        "ImagingFrequency": 297.205478,
        "InPlanePhaseEncodingDirection": "COL",
        "LargestImagePixelValue": 4095,
        "MRAcquisitionType": "2D",
        "MagneticFieldStrength": 6.98,
        "Manufacturer": "SIEMENS",
        "ManufacturerModelName": "Investigational_Device_7T",
        "Modality": "MR",
        "NumberOfAverages": 1.0,
        "NumberOfPhaseEncodingSteps": 141,
        "PercentPhaseFieldOfView": 100.0,
        "PercentSampling": 100.0,
        "PerformedProcedureStepStartTime": "142429.390000",
        "PhotometricInterpretation": "MONOCHROME2",
        "PixelBandwidth": 1400.0,
        "PixelRepresentation": 0,
        "PixelSpacing": [
          1.0957447290421,
          1.0957447290421
        ],
        "ProtocolName": "cmrr_mbep2d_bold_AP_run2",
        "RepetitionTime": 2600.0,
        "Rows": 1316,
        "SAR": 0.09312984540386,
        "SamplesPerPixel": 1,
        "ScanOptions": [
          "PFP",
          "FS"
        ],
        "ScanningSequence": "EP",
        "SequenceName": "epfid2d1_188",
        "SequenceVariant": [
          "SK",
          "SS"
        ],
        "SeriesDescription": "cmrr_mbep2d_bold_AP_run2",
        "SeriesNumber": 11,
        "SeriesTime": "151033.093000",
        "SliceLocation": -48.374043508033,
        "SliceThickness": 1.1000000238419,
        "SmallestImagePixelValue": 0,
        "SoftwareVersions": "syngo MR B17",
        "SpacingBetweenSlices": 1.0999991725909,
        "SpecificCharacterSet": "ISO_IR 100",
        "StudyID": "1",
        "StudyTime": "142429.359000",
        "TransmitCoilName": "32Ch_Head_7T",
        "VariableFlipAngleFlag": "N",
        "WindowCenterWidthExplanation": "Algo1",
        "dBdt": 0.0
      },
      "slices": {}
    },
    "modality": "bold",
    "run_id": 2,
    "session_id": "SES04",
    "subject_id": "S11",
    "task_id": "auditory",
    "time": {
      "samples": {
        "AcquisitionNumber": [
          1,
          2,
          3,
          4,
          5,
          6,
          7,
          8,
          9,
          10,
          11,
          12,
          13,
          14,
          15,
          16,
          17,
          18,
          19,
          20,
          21,
          22,
          23,
          24,
          25,
          26,
          27,
          28,
          29,
          30,
          31,
          32,
          33,
          34,
          35,
          36,
          37,
          38,
          39,
          40,
          41,
          42,
          43,
          44,
          45,
          46,
          47,
          48,
          49,
          50,
          51,
          52,
          53,
          54,
          55,
          56,
          57,
          58,
          59,
          60,
          61,
          62,
          63,
          64,
          65,
          66,
          67,
          68,
          69,
          70,
          71,
          72,
          73,
          74,
          75,
          76,
          77,
          78,
          79,
          80,
          81,
          82,
          83,
          84,
          85,
          86,
          87,
          88,
          89,
          90,
          91,
          92,
          93,
          94,
          95,
          96,
          97,
          98,
          99,
          100,
          101,
          102,
          103,
          104,
          105,
          106,
          107,
          108,
          109,
          110,
          111,
          112,
          113,
          114,
          115,
          116,
          117,
          118,
          119,
          120,
          121,
          122,
          123,
          124,
          125,
          126,
          127,
          128,
          129,
          130,
          131,
          132,
          133,
          134,
          135,
          136,
          137,
          138,
          139,
          140,
          141,
          142,
          143,
          144,
          145,
          146,
          147,
          148,
          149,
          150,
          151,
          152,
          153,
          154,
          155,
          156,
          157,
          158,
          159,
          160,
          161,
          162,
          163,
          164,
          165,
          166,
          167,
          168,
          169,
          170,
          171,
          172,
          173,
          174,
          175,
          176,
          177,
          178,
          179,
          180,
          181,
          182,
          183,
          184,
          185,
          186,
          187,
          188,
          189,
          190,
          191,
          192,
          193,
          194,
          195,
          196,
          197,
          198,
          199,
          200,
          201,
          202,
          203,
          204,
          205,
          206,
          207,
          208,
          209,
          210,
          211,
          212,
          213,
          214,
          215,
          216
        ],
        "AcquisitionTime": [
          "150937.247500",
          "150939.857500",
          "150942.467500",
          "150945.077500",
          "150947.690000",
          "150950.300000",
          "150952.910000",
          "150955.520000",
          "150958.130000",
          "151000.740000",
          "151003.352500",
          "151005.962500",
          "151008.572500",
          "151011.182500",
          "151013.792500",
          "151016.402500",
          "151019.015000",
          "151021.625000",
          "151024.235000",
          "151026.845000",
          "151029.455000",
          "151032.067500",
          "151034.677500",
          "151037.287500",
          "151039.897500",
          "151042.507500",
          "151045.117500",
          "151047.730000",
          "151050.340000",
          "151052.950000",
          "151055.560000",
          "151058.170000",
          "151100.780000",
          "151103.392500",
          "151106.002500",
          "151108.612500",
          "151111.222500",
          "151113.832500",
          "151116.445000",
          "151119.055000",
          "151121.665000",
          "151124.275000",
          "151126.885000",
          "151129.495000",
          "151132.107500",
          "151134.717500",
          "151137.327500",
          "151139.937500",
          "151142.547500",
          "151145.157500",
          "151147.770000",
          "151150.380000",
          "151152.990000",
          "151155.600000",
          "151158.210000",
          "151200.822500",
          "151203.432500",
          "151206.042500",
          "151208.652500",
          "151211.262500",
          "151213.872500",
          "151216.485000",
          "151219.095000",
          "151221.705000",
          "151224.315000",
          "151226.925000",
          "151229.535000",
          "151232.147500",
          "151234.757500",
          "151237.367500",
          "151239.977500",
          "151242.587500",
          "151245.200000",
          "151247.810000",
          "151250.420000",
          "151253.030000",
          "151255.640000",
          "151258.250000",
          "151300.862500",
          "151303.472500",
          "151306.082500",
          "151308.692500",
          "151311.302500",
          "151313.912500",
          "151316.525000",
          "151319.135000",
          "151321.745000",
          "151324.355000",
          "151326.965000",
          "151329.577500",
          "151332.187500",
          "151334.797500",
          "151337.407500",
          "151340.017500",
          "151342.627500",
          "151345.240000",
          "151347.850000",
          "151350.460000",
          "151353.070000",
          "151355.680000",
          "151358.290000",
          "151400.902500",
          "151403.512500",
          "151406.122500",
          "151408.732500",
          "151411.342500",
          "151413.955000",
          "151416.565000",
          "151419.175000",
          "151421.785000",
          "151424.395000",
          "151427.005000",
          "151429.617500",
          "151432.227500",
          "151434.837500",
          "151437.447500",
          "151440.057500",
          "151442.667500",
          "151445.280000",
          "151447.890000",
          "151450.500000",
          "151453.110000",
          "151455.720000",
          "151458.332500",
          "151500.942500",
          "151503.552500",
          "151506.162500",
          "151508.772500",
          "151511.382500",
          "151513.995000",
          "151516.605000",
          "151519.215000",
          "151521.825000",
          "151524.435000",
          "151527.045000",
          "151529.657500",
          "151532.267500",
          "151534.877500",
          "151537.487500",
          "151540.097500",
          "151542.710000",
          "151545.320000",
          "151547.930000",
          "151550.540000",
          "151553.150000",
          "151555.760000",
          "151558.372500",
          "151600.982500",
          "151603.592500",
          "151606.202500",
          "151608.812500",
          "151611.422500",
          "151614.035000",
          "151616.645000",
          "151619.255000",
          "151621.865000",
          "151624.475000",
          "151627.087500",
          "151629.697500",
          "151632.307500",
          "151634.917500",
          "151637.527500",
          "151640.137500",
          "151642.750000",
          "151645.360000",
          "151647.970000",
          "151650.580000",
          "151653.190000",
          "151655.800000",
          "151658.412500",
          "151701.022500",
          "151703.632500",
          "151706.242500",
          "151708.852500",
          "151711.465000",
          "151714.075000",
          "151716.685000",
          "151719.295000",
          "151721.905000",
          "151724.515000",
          "151727.127500",
          "151729.737500",
          "151732.347500",
          "151734.957500",
          "151737.567500",
          "151740.180000",
          "151742.790000",
          "151745.400000",
          "151748.010000",
          "151750.620000",
          "151753.230000",
          "151755.842500",
          "151758.452500",
          "151801.062500",
          "151803.672500",
          "151806.282500",
          "151808.892500",
          "151811.505000",
          "151814.115000",
          "151816.725000",
          "151819.335000",
          "151821.945000",
          "151824.557500",
          "151827.167500",
          "151829.777500",
          "151832.387500",
          "151834.997500",
          "151837.607500",
          "151840.220000",
          "151842.830000",
          "151845.440000",
          "151848.050000",
          "151850.660000",
          "151853.270000",
          "151855.882500",
          "151858.492500"
        ],
        "ContentTime": [
          "151033.093000",
          "151033.093000",
          "151033.109000",
          "151033.109000",
          "151033.109000",
          "151033.109000",
          "151033.109000",
          "151033.125000",
          "151033.125000",
          "151033.125000",
          "151033.125000",
          "151033.125000",
          "151033.125000",
          "151033.125000",
          "151033.140000",
          "151033.140000",
          "151033.140000",
          "151033.140000",
          "151033.140000",
          "151033.140000",
          "151133.093000",
          "151133.093000",
          "151133.093000",
          "151133.093000",
          "151133.093000",
          "151133.109000",
          "151133.109000",
          "151133.109000",
          "151133.109000",
          "151133.109000",
          "151133.109000",
          "151133.109000",
          "151133.109000",
          "151133.140000",
          "151133.140000",
          "151133.140000",
          "151133.140000",
          "151133.140000",
          "151133.140000",
          "151133.140000",
          "151133.140000",
          "151133.156000",
          "151133.171000",
          "151233.093000",
          "151233.093000",
          "151233.093000",
          "151233.109000",
          "151233.109000",
          "151233.109000",
          "151233.109000",
          "151233.109000",
          "151233.109000",
          "151233.125000",
          "151233.125000",
          "151233.125000",
          "151233.125000",
          "151233.125000",
          "151233.125000",
          "151233.125000",
          "151233.140000",
          "151233.140000",
          "151233.140000",
          "151233.140000",
          "151233.140000",
          "151233.140000",
          "151233.140000",
          "151233.156000",
          "151333.093000",
          "151333.093000",
          "151333.093000",
          "151333.093000",
          "151333.093000",
          "151333.109000",
          "151333.109000",
          "151333.109000",
          "151333.109000",
          "151333.109000",
          "151333.109000",
          "151333.109000",
          "151333.109000",
          "151333.125000",
          "151333.125000",
          "151333.125000",
          "151333.140000",
          "151333.140000",
          "151333.140000",
          "151333.140000",
          "151333.140000",
          "151333.140000",
          "151333.156000",
          "151433.093000",
          "151433.093000",
          "151433.093000",
          "151433.109000",
          "151433.109000",
          "151433.109000",
          "151433.109000",
          "151433.109000",
          "151433.109000",
          "151433.109000",
          "151433.109000",
          "151433.125000",
          "151433.125000",
          "151433.125000",
          "151433.125000",
          "151433.125000",
          "151433.125000",
          "151433.125000",
          "151433.125000",
          "151433.140000",
          "151433.140000",
          "151433.140000",
          "151433.140000",
          "151533.093000",
          "151533.093000",
          "151533.093000",
          "151533.093000",
          "151533.093000",
          "151533.109000",
          "151533.109000",
          "151533.109000",
          "151533.109000",
          "151533.109000",
          "151533.109000",
          "151533.109000",
          "151533.109000",
          "151533.125000",
          "151533.125000",
          "151533.125000",
          "151533.125000",
          "151533.125000",
          "151533.125000",
          "151533.140000",
          "151533.140000",
          "151533.140000",
          "151533.140000",
          "151633.093000",
          "151633.093000",
          "151633.093000",
          "151633.109000",
          "151633.109000",
          "151633.109000",
          "151633.109000",
          "151633.109000",
          "151633.109000",
          "151633.109000",
          "151633.125000",
          "151633.125000",
          "151633.125000",
          "151633.125000",
          "151633.125000",
          "151633.125000",
          "151633.125000",
          "151633.125000",
          "151633.140000",
          "151633.140000",
          "151633.140000",
          "151633.140000",
          "151633.140000",
          "151733.093000",
          "151733.093000",
          "151733.093000",
          "151733.093000",
          "151733.093000",
          "151733.109000",
          "151733.109000",
          "151733.109000",
          "151733.109000",
          "151733.109000",
          "151733.125000",
          "151733.125000",
          "151733.125000",
          "151733.125000",
          "151733.125000",
          "151733.125000",
          "151733.125000",
          "151733.125000",
          "151733.140000",
          "151733.140000",
          "151733.140000",
          "151733.140000",
          "151733.140000",
          "151813.093000",
          "151813.093000",
          "151813.093000",
          "151813.093000",
          "151813.093000",
          "151813.093000",
          "151813.109000",
          "151813.109000",
          "151813.109000",
          "151813.109000",
          "151813.109000",
          "151813.109000",
          "151813.109000",
          "151813.125000",
          "151813.125000",
          "151905.406000",
          "151905.406000",
          "151905.406000",
          "151905.406000",
          "151905.406000",
          "151905.421000",
          "151905.421000",
          "151905.421000",
          "151905.421000",
          "151905.421000",
          "151905.421000",
          "151905.421000",
          "151905.421000",
          "151905.437000",
          "151905.437000",
          "151905.437000",
          "151905.437000",
          "151905.437000",
          "151905.437000"
        ],
        "InstanceCreationTime": [
          "151033.093000",
          "151033.093000",
          "151033.109000",
          "151033.109000",
          "151033.109000",
          "151033.109000",
          "151033.109000",
          "151033.125000",
          "151033.125000",
          "151033.125000",
          "151033.125000",
          "151033.125000",
          "151033.125000",
          "151033.125000",
          "151033.140000",
          "151033.140000",
          "151033.140000",
          "151033.140000",
          "151033.140000",
          "151033.140000",
          "151133.093000",
          "151133.093000",
          "151133.093000",
          "151133.093000",
          "151133.093000",
          "151133.109000",
          "151133.109000",
          "151133.109000",
          "151133.109000",
          "151133.109000",
          "151133.109000",
          "151133.109000",
          "151133.109000",
          "151133.140000",
          "151133.140000",
          "151133.140000",
          "151133.140000",
          "151133.140000",
          "151133.140000",
          "151133.140000",
          "151133.140000",
          "151133.156000",
          "151133.171000",
          "151233.093000",
          "151233.093000",
          "151233.093000",
          "151233.109000",
          "151233.109000",
          "151233.109000",
          "151233.109000",
          "151233.109000",
          "151233.109000",
          "151233.125000",
          "151233.125000",
          "151233.125000",
          "151233.125000",
          "151233.125000",
          "151233.125000",
          "151233.125000",
          "151233.140000",
          "151233.140000",
          "151233.140000",
          "151233.140000",
          "151233.140000",
          "151233.140000",
          "151233.140000",
          "151233.156000",
          "151333.093000",
          "151333.093000",
          "151333.093000",
          "151333.093000",
          "151333.093000",
          "151333.109000",
          "151333.109000",
          "151333.109000",
          "151333.109000",
          "151333.109000",
          "151333.109000",
          "151333.109000",
          "151333.109000",
          "151333.125000",
          "151333.125000",
          "151333.125000",
          "151333.140000",
          "151333.140000",
          "151333.140000",
          "151333.140000",
          "151333.140000",
          "151333.140000",
          "151333.156000",
          "151433.093000",
          "151433.093000",
          "151433.093000",
          "151433.109000",
          "151433.109000",
          "151433.109000",
          "151433.109000",
          "151433.109000",
          "151433.109000",
          "151433.109000",
          "151433.109000",
          "151433.125000",
          "151433.125000",
          "151433.125000",
          "151433.125000",
          "151433.125000",
          "151433.125000",
          "151433.125000",
          "151433.125000",
          "151433.140000",
          "151433.140000",
          "151433.140000",
          "151433.140000",
          "151533.093000",
          "151533.093000",
          "151533.093000",
          "151533.093000",
          "151533.093000",
          "151533.109000",
          "151533.109000",
          "151533.109000",
          "151533.109000",
          "151533.109000",
          "151533.109000",
          "151533.109000",
          "151533.109000",
          "151533.125000",
          "151533.125000",
          "151533.125000",
          "151533.125000",
          "151533.125000",
          "151533.125000",
          "151533.140000",
          "151533.140000",
          "151533.140000",
          "151533.140000",
          "151633.093000",
          "151633.093000",
          "151633.093000",
          "151633.109000",
          "151633.109000",
          "151633.109000",
          "151633.109000",
          "151633.109000",
          "151633.109000",
          "151633.109000",
          "151633.125000",
          "151633.125000",
          "151633.125000",
          "151633.125000",
          "151633.125000",
          "151633.125000",
          "151633.125000",
          "151633.125000",
          "151633.140000",
          "151633.140000",
          "151633.140000",
          "151633.140000",
          "151633.140000",
          "151733.093000",
          "151733.093000",
          "151733.093000",
          "151733.093000",
          "151733.093000",
          "151733.109000",
          "151733.109000",
          "151733.109000",
          "151733.109000",
          "151733.109000",
          "151733.125000",
          "151733.125000",
          "151733.125000",
          "151733.125000",
          "151733.125000",
          "151733.125000",
          "151733.125000",
          "151733.125000",
          "151733.140000",
          "151733.140000",
          "151733.140000",
          "151733.140000",
          "151733.140000",
          "151813.093000",
          "151813.093000",
          "151813.093000",
          "151813.093000",
          "151813.093000",
          "151813.093000",
          "151813.109000",
          "151813.109000",
          "151813.109000",
          "151813.109000",
          "151813.109000",
          "151813.109000",
          "151813.109000",
          "151813.125000",
          "151813.125000",
          "151905.406000",
          "151905.406000",
          "151905.406000",
          "151905.406000",
          "151905.406000",
          "151905.421000",
          "151905.421000",
          "151905.421000",
          "151905.421000",
          "151905.421000",
          "151905.421000",
          "151905.421000",
          "151905.421000",
          "151905.437000",
          "151905.437000",
          "151905.437000",
          "151905.437000",
          "151905.437000",
          "151905.437000"
        ],
        "InstanceNumber": [
          1,
          2,
          3,
          4,
          5,
          6,
          7,
          8,
          9,
          10,
          11,
          12,
          13,
          14,
          15,
          16,
          17,
          18,
          19,
          20,
          21,
          22,
          23,
          24,
          25,
          26,
          27,
          28,
          29,
          30,
          31,
          32,
          33,
          34,
          35,
          36,
          37,
          38,
          39,
          40,
          41,
          42,
          43,
          44,
          45,
          46,
          47,
          48,
          49,
          50,
          51,
          52,
          53,
          54,
          55,
          56,
          57,
          58,
          59,
          60,
          61,
          62,
          63,
          64,
          65,
          66,
          67,
          68,
          69,
          70,
          71,
          72,
          73,
          74,
          75,
          76,
          77,
          78,
          79,
          80,
          81,
          82,
          83,
          84,
          85,
          86,
          87,
          88,
          89,
          90,
          91,
          92,
          93,
          94,
          95,
          96,
          97,
          98,
          99,
          100,
          101,
          102,
          103,
          104,
          105,
          106,
          107,
          108,
          109,
          110,
          111,
          112,
          113,
          114,
          115,
          116,
          117,
          118,
          119,
          120,
          121,
          122,
          123,
          124,
          125,
          126,
          127,
          128,
          129,
          130,
          131,
          132,
          133,
          134,
          135,
          136,
          137,
          138,
          139,
          140,
          141,
          142,
          143,
          144,
          145,
          146,
          147,
          148,
          149,
          150,
          151,
          152,
          153,
          154,
          155,
          156,
          157,
          158,
          159,
          160,
          161,
          162,
          163,
          164,
          165,
          166,
          167,
          168,
          169,
