{
  "aor": 0.0004664814814814815,
  "aqi": 0.011143023935185185,
  "bids_meta": {
    "AcquisitionMatrixPE": 188,
    "AcquisitionNumber": 1,
    "AcquisitionTime": "17:37:15.692500",
    "BandwidthPerPixelPhaseEncode": 19.46,
    "BaseResolution": 188,
    "ConversionSoftware": "dcm2niix",
    "ConversionSoftwareVersion": "v1.0.20180606 GCC4.8.5",
    "DelayTime": 1.2,
    "DerivedVendorReportedEchoSpacing": 0.000820013,
    "DeviceSerialNumber": "18930",
    "DwellTime": 1.9e-06,
    "EchoTime": 0.02,
    "EffectiveEchoSpacing": 0.000273338,
    "FlipAngle": 80,
    "ImageComments": "Unaliased_MB2_PE2",
    "ImageOrientationPatientDICOM": [
      0.999156,
      0.040874,
      -0.00418031,
      -0.00977667,
      0.137694,
      -0.990427
    ],
    "ImageType": [
      "ORIGINAL",
      "PRIMARY",
      "M",
      "MB",
      "ND",
      "MOSAIC"
    ],
    "InPlanePhaseEncodingDirectionDICOM": "COL",
    "InstitutionAddress": "Oxfordlaan_55_Maastricht_Limburg_NL_6229_EV",
    "InstitutionName": "Scannexus",
    "InstitutionalDepartmentName": "MRI_7T",
    "MRAcquisitionType": "2D",
    "MagneticFieldStrength": 6.98,
    "Manufacturer": "Siemens",
    "ManufacturersModelName": "Investigational_Device_7T",
    "Modality": "MR",
    "MultibandAccelerationFactor": 2,
    "ParallelReductionFactorInPlane": 3,
    "PartialFourier": 0.75,
    "PatientPosition": "HFS",
    "PercentPhaseFOV": 100,
    "PhaseEncodingDirection": "j",
    "PhaseEncodingSteps": 141,
    "PhaseResolution": 1,
    "PixelBandwidth": 1400,
    "ProcedureStepDescription": "FeDem_Faruk",
    "ProtocolName": "cmrr_mbep2d_bold_AP_run3",
    "PulseSequenceDetails": "%CustomerSeq%_cmrr_mbep2d_bold",
    "ReceiveCoilName": "32Ch_Head_7T",
    "ReconMatrixPE": 188,
    "RepetitionTime": 2.6,
    "SAR": 0.0852024,
    "ScanOptions": "PFP_FS",
    "ScanningSequence": "EP",
    "SequenceName": "epfid2d1_188",
    "SequenceVariant": "SK_SS",
    "SeriesDescription": "cmrr_mbep2d_bold_AP_run3",
    "SeriesNumber": 12,
    "ShimSetting": [
      97,
      -96,
      405,
      501,
      -175,
      -4,
      175,
      198
    ],
    "SliceThickness": 1.1,
    "SliceTiming": [
      0,
      0.735,
      0.0625,
      0.795,
      0.1225,
      0.8575,
      0.185,
      0.9175,
      0.245,
      0.9775,
      0.3075,
      1.04,
      0.3675,
      1.1,
      0.4275,
      1.1625,
      0.49,
      1.2225,
      0.55,
      1.285,
      0.6125,
      1.345,
      0.6725,
      0,
      0.735,
      0.0625,
      0.795,
      0.1225,
      0.8575,
      0.185,
      0.9175,
      0.245,
      0.9775,
      0.3075,
      1.04,
      0.3675,
      1.1,
      0.4275,
      1.1625,
      0.49,
      1.2225,
      0.55,
      1.285,
      0.6125,
      1.345,
      0.6725
    ],
    "SoftwareVersions": "syngo_MR_B17",
    "SpacingBetweenSlices": 1.1,
    "StationName": "MRC18930",
    "TaskName": "auditory",
    "TotalReadoutTime": 0.0511141,
    "TxRefAmp": 255,
    "dataset": "ds001942",
    "dcmmeta_affine": [
      [
        -1.09481942653656,
        -0.010712730698287487,
        0.043897829949855804,
        100.35326385498047
      ],
      [
        -0.04478750005364418,
        0.15087786316871643,
        -1.0885941982269287,
        33.094688415527344
      ],
      [
        -0.004580550827085972,
        1.0852546691894531,
        0.15177546441555023,
        -118.87760162353516
      ],
      [
        0.0,
        0.0,
        0.0,
        1.0
      ]
    ],
    "dcmmeta_reorient_transform": [
      [
        0.0,
        -1.0,
        0.0,
        187.0
      ],
      [
        1.0,
        0.0,
        0.0,
        0.0
      ],
      [
        0.0,
        0.0,
        1.0,
        0.0
      ],
      [
        0.0,
        0.0,
        0.0,
        1.0
      ]
    ],
    "dcmmeta_shape": [
      188,
      188,
      46,
      216
    ],
    "dcmmeta_slice_dim": 2,
    "dcmmeta_version": 0.6,
    "global": {
      "const": {
        "AcquisitionMatrix": [
          188,
          0,
          0,
          188
        ],
        "AngioFlag": "N",
        "BitsAllocated": 16,
        "BitsStored": 12,
        "Columns": 1316,
        "EchoNumbers": 1,
        "EchoTime": 20.0,
        "EchoTrainLength": 1,
        "FlipAngle": 80.0,
        "HighBit": 11,
        "ImageOrientationPatient": [
          0.99915556295306,
          0.04087402650456,
          -0.0041803082734,
          -0.0097766664984,
          0.13769435124752,
          -0.9904265154098
        ],
        "ImagePositionPatient": [
          -709.7861654161,
          -171.66411156359,
          698.73205770084
        ],
        "ImageType": [
          "ORIGINAL",
          "PRIMARY",
          "M",
          "MB",
          "ND",
          "MOSAIC"
        ],
        "ImagedNucleus": "1H",
        "ImagingFrequency": 297.205455,
        "InPlanePhaseEncodingDirection": "COL",
        "LargestImagePixelValue": 4095,
        "MRAcquisitionType": "2D",
        "MagneticFieldStrength": 6.98,
        "Manufacturer": "SIEMENS",
        "ManufacturerModelName": "Investigational_Device_7T",
        "Modality": "MR",
        "NumberOfAverages": 1.0,
        "NumberOfPhaseEncodingSteps": 141,
        "PercentPhaseFieldOfView": 100.0,
        "PercentSampling": 100.0,
        "PerformedProcedureStepStartTime": "164208.109000",
        "PhotometricInterpretation": "MONOCHROME2",
        "PixelBandwidth": 1400.0,
        "PixelRepresentation": 0,
        "PixelSpacing": [
          1.0957447290421,
          1.0957447290421
        ],
        "ProtocolName": "cmrr_mbep2d_bold_AP_run3",
        "RepetitionTime": 2600.0,
        "Rows": 1316,
        "SAR": 0.08520238134029,
        "SamplesPerPixel": 1,
        "ScanOptions": [
          "PFP",
          "FS"
        ],
        "ScanningSequence": "EP",
        "SequenceName": "epfid2d1_188",
        "SequenceVariant": [
          "SK",
          "SS"
        ],
        "SeriesDescription": "cmrr_mbep2d_bold_AP_run3",
        "SeriesNumber": 12,
        "SeriesTime": "173814.453000",
        "SliceLocation": -45.149179515982,
        "SliceThickness": 1.1000000238419,
        "SmallestImagePixelValue": 0,
        "SoftwareVersions": "syngo MR B17",
        "SpacingBetweenSlices": 1.1000000764209,
        "SpecificCharacterSet": "ISO_IR 100",
        "StudyID": "1",
        "StudyTime": "164208.062000",
        "TransmitCoilName": "32Ch_Head_7T",
        "VariableFlipAngleFlag": "N",
        "WindowCenterWidthExplanation": "Algo1",
        "dBdt": 0.0
      },
      "slices": {}
    },
    "modality": "bold",
    "run_id": 3,
    "session_id": "SES05",
    "subject_id": "S10",
    "task_id": "auditory",
    "time": {
      "samples": {
        "AcquisitionNumber": [
          1,
          2,
          3,
          4,
          5,
          6,
          7,
          8,
          9,
          10,
          11,
          12,
          13,
          14,
          15,
          16,
          17,
          18,
          19,
          20,
          21,
          22,
          23,
          24,
          25,
          26,
          27,
          28,
          29,
          30,
          31,
          32,
          33,
          34,
          35,
          36,
          37,
          38,
          39,
          40,
          41,
          42,
          43,
          44,
          45,
          46,
          47,
          48,
          49,
          50,
          51,
          52,
          53,
          54,
          55,
          56,
          57,
          58,
          59,
          60,
          61,
          62,
          63,
          64,
          65,
          66,
          67,
          68,
          69,
          70,
          71,
          72,
          73,
          74,
          75,
          76,
          77,
          78,
          79,
          80,
          81,
          82,
          83,
          84,
          85,
          86,
          87,
          88,
          89,
          90,
          91,
          92,
          93,
          94,
          95,
          96,
          97,
          98,
          99,
          100,
          101,
          102,
          103,
          104,
          105,
          106,
          107,
          108,
          109,
          110,
          111,
          112,
          113,
          114,
          115,
          116,
          117,
          118,
          119,
          120,
          121,
          122,
          123,
          124,
          125,
          126,
          127,
          128,
          129,
          130,
          131,
          132,
          133,
          134,
          135,
          136,
          137,
          138,
          139,
          140,
          141,
          142,
          143,
          144,
          145,
          146,
          147,
          148,
          149,
          150,
          151,
          152,
          153,
          154,
          155,
          156,
          157,
          158,
          159,
          160,
          161,
          162,
          163,
          164,
          165,
          166,
          167,
          168,
          169,
          170,
          171,
          172,
          173,
          174,
          175,
          176,
          177,
          178,
          179,
          180,
          181,
          182,
          183,
          184,
          185,
          186,
          187,
          188,
          189,
          190,
          191,
          192,
          193,
          194,
          195,
          196,
          197,
          198,
          199,
          200,
          201,
          202,
          203,
          204,
          205,
          206,
          207,
          208,
          209,
          210,
          211,
          212,
          213,
          214,
          215,
          216
        ],
        "AcquisitionTime": [
          "173715.692500",
          "173718.305000",
          "173720.915000",
          "173723.525000",
          "173726.135000",
          "173728.745000",
          "173731.355000",
          "173733.967500",
          "173736.577500",
          "173739.187500",
          "173741.797500",
          "173744.407500",
          "173747.017500",
          "173749.630000",
          "173752.240000",
          "173754.850000",
          "173757.460000",
          "173800.070000",
          "173802.682500",
          "173805.292500",
          "173807.902500",
          "173810.512500",
          "173813.122500",
          "173815.732500",
          "173818.345000",
          "173820.955000",
          "173823.565000",
          "173826.175000",
          "173828.785000",
          "173831.395000",
          "173834.007500",
          "173836.617500",
          "173839.227500",
          "173841.837500",
          "173844.447500",
          "173847.060000",
          "173849.670000",
          "173852.280000",
          "173854.890000",
          "173857.500000",
          "173900.110000",
          "173902.722500",
          "173905.332500",
          "173907.942500",
          "173910.552500",
          "173913.162500",
          "173915.772500",
          "173918.385000",
          "173920.995000",
          "173923.605000",
          "173926.215000",
          "173928.825000",
          "173931.437500",
          "173934.047500",
          "173936.657500",
          "173939.267500",
          "173941.877500",
          "173944.487500",
          "173947.100000",
          "173949.710000",
          "173952.320000",
          "173954.930000",
          "173957.540000",
          "174000.150000",
          "174002.762500",
          "174005.372500",
          "174007.982500",
          "174010.592500",
          "174013.202500",
          "174015.815000",
          "174018.425000",
          "174021.035000",
          "174023.645000",
          "174026.255000",
          "174028.865000",
          "174031.477500",
          "174034.087500",
          "174036.697500",
          "174039.307500",
          "174041.917500",
          "174044.527500",
          "174047.140000",
          "174049.750000",
          "174052.360000",
          "174054.970000",
          "174057.580000",
          "174100.192500",
          "174102.802500",
          "174105.412500",
          "174108.022500",
          "174110.632500",
          "174113.242500",
          "174115.855000",
          "174118.465000",
          "174121.075000",
          "174123.685000",
          "174126.295000",
          "174128.905000",
          "174131.517500",
          "174134.127500",
          "174136.737500",
          "174139.347500",
          "174141.957500",
          "174144.570000",
          "174147.180000",
          "174149.790000",
          "174152.400000",
          "174155.010000",
          "174157.620000",
          "174200.232500",
          "174202.842500",
          "174205.452500",
          "174208.062500",
          "174210.672500",
          "174213.282500",
          "174215.895000",
          "174218.505000",
          "174221.115000",
          "174223.725000",
          "174226.335000",
          "174228.947500",
          "174231.557500",
          "174234.167500",
          "174236.777500",
          "174239.387500",
          "174241.997500",
          "174244.610000",
          "174247.220000",
          "174249.830000",
          "174252.440000",
          "174255.050000",
          "174257.660000",
          "174300.272500",
          "174302.882500",
          "174305.492500",
          "174308.102500",
          "174310.712500",
          "174313.325000",
          "174315.935000",
          "174318.545000",
          "174321.155000",
          "174323.765000",
          "174326.375000",
          "174328.987500",
          "174331.597500",
          "174334.207500",
          "174336.817500",
          "174339.427500",
          "174342.037500",
          "174344.650000",
          "174347.260000",
          "174349.870000",
          "174352.480000",
          "174355.090000",
          "174357.702500",
          "174400.312500",
          "174402.922500",
          "174405.532500",
          "174408.142500",
          "174410.752500",
          "174413.365000",
          "174415.975000",
          "174418.585000",
          "174421.195000",
          "174423.805000",
          "174426.415000",
          "174429.027500",
          "174431.637500",
          "174434.247500",
          "174436.857500",
          "174439.467500",
          "174442.080000",
          "174444.690000",
          "174447.300000",
          "174449.910000",
          "174452.520000",
          "174455.130000",
          "174457.742500",
          "174500.352500",
          "174502.962500",
          "174505.572500",
          "174508.182500",
          "174510.792500",
          "174513.405000",
          "174516.015000",
          "174518.625000",
          "174521.235000",
          "174523.845000",
          "174526.457500",
          "174529.067500",
          "174531.677500",
          "174534.287500",
          "174536.897500",
          "174539.507500",
          "174542.120000",
          "174544.730000",
          "174547.340000",
          "174549.950000",
          "174552.560000",
          "174555.172500",
          "174557.782500",
          "174600.392500",
          "174603.002500",
          "174605.612500",
          "174608.222500",
          "174610.835000",
          "174613.445000",
          "174616.055000",
          "174618.665000",
          "174621.275000",
          "174623.885000",
          "174626.497500",
          "174629.107500",
          "174631.717500",
          "174634.327500",
          "174636.937500"
        ],
        "ContentTime": [
          "173814.468000",
          "173814.484000",
          "173814.484000",
          "173814.484000",
          "173814.484000",
          "173814.484000",
          "173814.484000",
          "173814.484000",
          "173814.500000",
          "173814.500000",
          "173814.500000",
          "173814.500000",
          "173814.500000",
          "173814.500000",
          "173814.500000",
          "173814.515000",
          "173814.515000",
          "173814.515000",
          "173814.515000",
          "173814.515000",
          "173814.515000",
          "173914.453000",
          "173914.484000",
          "173914.484000",
          "173914.484000",
          "173914.500000",
          "173914.500000",
          "173914.500000",
          "173914.500000",
          "173914.500000",
          "173914.531000",
          "173914.531000",
          "173914.531000",
          "173914.531000",
          "173914.531000",
          "173914.546000",
          "173914.546000",
          "173914.546000",
          "173914.546000",
          "173914.546000",
          "173914.546000",
          "173914.562000",
          "173914.562000",
          "173914.562000",
          "174014.453000",
          "174014.453000",
          "174014.453000",
          "174014.468000",
          "174014.468000",
          "174014.468000",
          "174014.468000",
          "174014.484000",
          "174014.484000",
          "174014.484000",
          "174014.484000",
          "174014.484000",
          "174014.500000",
          "174014.500000",
          "174014.500000",
          "174014.515000",
          "174014.515000",
          "174014.515000",
          "174014.515000",
          "174014.531000",
          "174014.531000",
          "174014.531000",
          "174014.531000",
          "174014.531000",
          "174114.453000",
          "174114.453000",
          "174114.453000",
          "174114.468000",
          "174114.468000",
          "174114.468000",
          "174114.468000",
          "174114.468000",
          "174114.468000",
          "174114.468000",
          "174114.484000",
          "174114.484000",
          "174114.484000",
          "174114.484000",
          "174114.484000",
          "174114.484000",
          "174114.484000",
          "174114.500000",
          "174114.500000",
          "174114.500000",
          "174114.515000",
          "174114.515000",
          "174114.515000",
          "174214.453000",
          "174214.453000",
          "174214.453000",
          "174214.453000",
          "174214.468000",
          "174214.468000",
          "174214.468000",
          "174214.468000",
          "174214.468000",
          "174214.468000",
          "174214.468000",
          "174214.484000",
          "174214.484000",
          "174214.484000",
          "174214.484000",
          "174214.484000",
          "174214.484000",
          "174214.484000",
          "174214.500000",
          "174214.500000",
          "174214.500000",
          "174214.500000",
          "174214.500000",
          "174314.453000",
          "174314.453000",
          "174314.453000",
          "174314.468000",
          "174314.468000",
          "174314.468000",
          "174314.468000",
          "174314.468000",
          "174314.468000",
          "174314.468000",
          "174314.484000",
          "174314.484000",
          "174314.484000",
          "174314.500000",
          "174314.500000",
          "174314.500000",
          "174314.500000",
          "174314.500000",
          "174314.515000",
          "174314.546000",
          "174314.546000",
          "174314.546000",
          "174314.562000",
          "174414.453000",
          "174414.453000",
          "174414.453000",
          "174414.453000",
          "174414.468000",
          "174414.468000",
          "174414.468000",
          "174414.468000",
          "174414.468000",
          "174414.468000",
          "174414.468000",
          "174414.484000",
          "174414.484000",
          "174414.484000",
          "174414.484000",
          "174414.484000",
          "174414.484000",
          "174414.484000",
          "174414.500000",
          "174414.500000",
          "174414.500000",
          "174414.500000",
          "174414.500000",
          "174434.453000",
          "174434.453000",
          "174434.453000",
          "174434.453000",
          "174434.468000",
          "174434.468000",
          "174434.468000",
          "174434.468000",
          "174534.453000",
          "174534.453000",
          "174534.468000",
          "174534.468000",
          "174534.468000",
          "174534.468000",
          "174534.468000",
          "174534.484000",
          "174534.484000",
          "174534.484000",
          "174534.484000",
          "174534.484000",
          "174534.484000",
          "174534.484000",
          "174534.500000",
          "174534.500000",
          "174534.500000",
          "174534.500000",
          "174534.500000",
          "174534.500000",
          "174534.500000",
          "174534.515000",
          "174534.531000",
          "174634.453000",
          "174634.453000",
          "174634.453000",
          "174634.468000",
          "174634.468000",
          "174634.468000",
          "174634.484000",
          "174634.484000",
          "174634.484000",
          "174634.484000",
          "174634.484000",
          "174634.484000",
          "174634.500000",
          "174634.500000",
          "174634.500000",
          "174634.500000",
          "174634.500000",
          "174634.500000",
          "174634.500000",
          "174634.515000",
          "174634.515000",
          "174634.515000",
          "174634.515000",
          "174644.140000",
          "174644.140000"
        ],
        "InstanceCreationTime": [
          "173814.468000",
          "173814.484000",
          "173814.484000",
          "173814.484000",
          "173814.484000",
          "173814.484000",
          "173814.484000",
          "173814.484000",
          "173814.500000",
          "173814.500000",
          "173814.500000",
          "173814.500000",
          "173814.500000",
          "173814.500000",
          "173814.500000",
          "173814.515000",
          "173814.515000",
          "173814.515000",
          "173814.515000",
          "173814.515000",
          "173814.515000",
          "173914.453000",
          "173914.484000",
          "173914.484000",
          "173914.484000",
          "173914.500000",
          "173914.500000",
          "173914.500000",
          "173914.500000",
          "173914.500000",
          "173914.531000",
          "173914.531000",
          "173914.531000",
          "173914.531000",
          "173914.531000",
          "173914.546000",
          "173914.546000",
          "173914.546000",
          "173914.546000",
          "173914.546000",
          "173914.546000",
          "173914.562000",
          "173914.562000",
          "173914.562000",
          "174014.453000",
          "174014.453000",
          "174014.453000",
          "174014.468000",
          "174014.468000",
          "174014.468000",
          "174014.468000",
          "174014.484000",
          "174014.484000",
          "174014.484000",
          "174014.484000",
          "174014.484000",
          "174014.500000",
          "174014.500000",
          "174014.500000",
          "174014.515000",
          "174014.515000",
          "174014.515000",
          "174014.515000",
          "174014.531000",
          "174014.531000",
          "174014.531000",
          "174014.531000",
          "174014.531000",
          "174114.453000",
          "174114.453000",
          "174114.453000",
          "174114.468000",
          "174114.468000",
          "174114.468000",
          "174114.468000",
          "174114.468000",
          "174114.468000",
          "174114.468000",
          "174114.484000",
          "174114.484000",
          "174114.484000",
          "174114.484000",
          "174114.484000",
          "174114.484000",
          "174114.484000",
          "174114.500000",
          "174114.500000",
          "174114.500000",
          "174114.515000",
          "174114.515000",
          "174114.515000",
          "174214.453000",
          "174214.453000",
          "174214.453000",
          "174214.453000",
          "174214.468000",
          "174214.468000",
          "174214.468000",
          "174214.468000",
          "174214.468000",
          "174214.468000",
          "174214.468000",
          "174214.484000",
          "174214.484000",
          "174214.484000",
          "174214.484000",
          "174214.484000",
          "174214.484000",
          "174214.484000",
          "174214.500000",
          "174214.500000",
          "174214.500000",
          "174214.500000",
          "174214.500000",
          "174314.453000",
          "174314.453000",
          "174314.453000",
          "174314.468000",
          "174314.468000",
          "174314.468000",
          "174314.468000",
          "174314.468000",
          "174314.468000",
          "174314.468000",
          "174314.484000",
          "174314.484000",
          "174314.484000",
          "174314.500000",
          "174314.500000",
          "174314.500000",
          "174314.500000",
          "174314.500000",
          "174314.515000",
          "174314.546000",
          "174314.546000",
          "174314.546000",
          "174314.562000",
          "174414.453000",
          "174414.453000",
          "174414.453000",
          "174414.453000",
          "174414.468000",
          "174414.468000",
          "174414.468000",
          "174414.468000",
          "174414.468000",
          "174414.468000",
          "174414.468000",
          "174414.484000",
          "174414.484000",
          "174414.484000",
          "174414.484000",
          "174414.484000",
          "174414.484000",
          "174414.484000",
          "174414.500000",
          "174414.500000",
          "174414.500000",
          "174414.500000",
          "174414.500000",
          "174434.453000",
          "174434.453000",
          "174434.453000",
          "174434.453000",
          "174434.468000",
          "174434.468000",
          "174434.468000",
          "174434.468000",
          "174534.453000",
          "174534.453000",
          "174534.468000",
          "174534.468000",
          "174534.468000",
          "174534.468000",
          "174534.468000",
          "174534.484000",
          "174534.484000",
          "174534.484000",
          "174534.484000",
          "174534.484000",
          "174534.484000",
          "174534.484000",
          "174534.500000",
          "174534.500000",
          "174534.500000",
          "174534.500000",
          "174534.500000",
          "174534.500000",
          "174534.500000",
          "174534.515000",
          "174534.531000",
          "174634.453000",
          "174634.453000",
          "174634.453000",
          "174634.468000",
          "174634.468000",
          "174634.468000",
          "174634.484000",
          "174634.484000",
          "174634.484000",
          "174634.484000",
          "174634.484000",
          "174634.484000",
          "174634.500000",
          "174634.500000",
          "174634.500000",
          "174634.500000",
          "174634.500000",
          "174634.500000",
          "174634.500000",
          "174634.515000",
          "174634.515000",
          "174634.515000",
          "174634.515000",
          "174644.140000",
          "174644.140000"
        ],
        "InstanceNumber": [
          1,
          2,
          3,
          4,
          5,
          6,
          7,
          8,
          9,
          10,
          11,
          12,
          13,
          14,
          15,
          16,
          17,
          18,
          19,
          20,
          21,
          22,
          23,
          24,
          25,
          26,
          27,
          28,
          29,
          30,
          31,
          32,
          33,
          34,
          35,
          36,
          37,
          38,
          39,
          40,
          41,
          42,
          43,
          44,
          45,
          46,
          47,
          48,
          49,
          50,
          51,
          52,
          53,
          54,
          55,
          56,
          57,
          58,
          59,
          60,
          61,
          62,
          63,
          64,
          65,
          66,
          67,
          68,
          69,
          70,
          71,
          72,
          73,
          74,
          75,
          76,
          77,
          78,
          79,
          80,
          81,
          82,
          83,
          84,
          85,
          86,
          87,
          88,
          89,
          90,
          91,
          92,
          93,
          94,
          95,
          96,
          97,
          98,
          99,
          100,
          101,
          102,
          103,
          104,
          105,
          106,
          107,
          108,
          109,
          110,
          111,
          112,
          113,
          114,
          115,
          116,
          117,
          118,
          119,
          120,
          121,
          122,
          123,
          124,
          125,
          126,
          127,
          128,
          129,
          130,
          131,
          132,
          133,
          134,
          135,
          136,
          137,
          138,
          139,
          140,
          141,
          142,
          143,
          144,
          145,
          146,
          147,
          148,
          149,
          150,
          151,
          152,
          153,
          154,
          155,
          156,
          157,
          158,
          159,
          160,
          161,
          162,
          163,
          164,
          165,
          166,
          167,
          168,
          169,
          170,
