{
  "aor": 0.0009677777777777779,
  "aqi": 0.011924213703703704,
  "bids_meta": {
    "AcquisitionMatrixPE": 188,
    "AcquisitionNumber": 1,
    "AcquisitionTime": "17:15:35.380000",
    "BandwidthPerPixelPhaseEncode": 19.46,
    "BaseResolution": 188,
    "ConversionSoftware": "dcm2niix",
    "ConversionSoftwareVersion": "v1.0.20180606 GCC4.8.5",
    "DelayTime": 1.2,
    "DerivedVendorReportedEchoSpacing": 0.000820013,
    "DeviceSerialNumber": "18930",
    "DwellTime": 1.9e-06,
    "EchoTime": 0.02,
    "EffectiveEchoSpacing": 0.000273338,
    "FlipAngle": 80,
    "ImageComments": "Unaliased_MB2_PE2",
    "ImageOrientationPatientDICOM": [
      0.999156,
      0.040874,
      -0.00418031,
      -0.00977667,
      0.137694,
      -0.990427
    ],
    "ImageType": [
      "ORIGINAL",
      "PRIMARY",
      "M",
      "MB",
      "ND",
      "MOSAIC"
    ],
    "InPlanePhaseEncodingDirectionDICOM": "COL",
    "InstitutionAddress": "Oxfordlaan_55_Maastricht_Limburg_NL_6229_EV",
    "InstitutionName": "Scannexus",
    "InstitutionalDepartmentName": "MRI_7T",
    "MRAcquisitionType": "2D",
    "MagneticFieldStrength": 6.98,
    "Manufacturer": "Siemens",
    "ManufacturersModelName": "Investigational_Device_7T",
    "Modality": "MR",
    "MultibandAccelerationFactor": 2,
    "ParallelReductionFactorInPlane": 3,
    "PartialFourier": 0.75,
    "PatientPosition": "HFS",
    "PercentPhaseFOV": 100,
    "PhaseEncodingDirection": "j",
    "PhaseEncodingSteps": 141,
    "PhaseResolution": 1,
    "PixelBandwidth": 1400,
    "ProcedureStepDescription": "FeDem_Faruk",
    "ProtocolName": "cmrr_mbep2d_bold_AP_run1",
    "PulseSequenceDetails": "%CustomerSeq%_cmrr_mbep2d_bold",
    "ReceiveCoilName": "32Ch_Head_7T",
    "ReconMatrixPE": 188,
    "RepetitionTime": 2.6,
    "SAR": 0.0847257,
    "ScanOptions": "PFP_FS",
    "ScanningSequence": "EP",
    "SequenceName": "epfid2d1_188",
    "SequenceVariant": "SK_SS",
    "SeriesDescription": "cmrr_mbep2d_bold_AP_run1",
    "SeriesNumber": 10,
    "ShimSetting": [
      97,
      -96,
      405,
      501,
      -175,
      -4,
      175,
      198
    ],
    "SliceThickness": 1.1,
    "SliceTiming": [
      0,
      0.735,
      0.0625,
      0.795,
      0.1225,
      0.8575,
      0.185,
      0.9175,
      0.245,
      0.98,
      0.3075,
      1.04,
      0.3675,
      1.1,
      0.43,
      1.1625,
      0.49,
      1.2225,
      0.55,
      1.285,
      0.6125,
      1.345,
      0.6725,
      0,
      0.735,
      0.0625,
      0.795,
      0.1225,
      0.8575,
      0.185,
      0.9175,
      0.245,
      0.98,
      0.3075,
      1.04,
      0.3675,
      1.1,
      0.43,
      1.1625,
      0.49,
      1.2225,
      0.55,
      1.285,
      0.6125,
      1.345,
      0.6725
    ],
    "SoftwareVersions": "syngo_MR_B17",
    "SpacingBetweenSlices": 1.1,
    "StationName": "MRC18930",
    "TaskName": "auditory",
    "TotalReadoutTime": 0.0511141,
    "TxRefAmp": 255,
    "dataset": "ds001942",
    "dcmmeta_affine": [
      [
        -1.09481942653656,
        -0.010712730698287487,
        0.043897829949855804,
        100.35326385498047
      ],
      [
        -0.04478750005364418,
        0.15087786316871643,
        -1.0885941982269287,
        33.094688415527344
      ],
      [
        -0.004580550827085972,
        1.0852546691894531,
        0.15177546441555023,
        -118.87760162353516
      ],
      [
        0.0,
        0.0,
        0.0,
        1.0
      ]
    ],
    "dcmmeta_reorient_transform": [
      [
        0.0,
        -1.0,
        0.0,
        187.0
      ],
      [
        1.0,
        0.0,
        0.0,
        0.0
      ],
      [
        0.0,
        0.0,
        1.0,
        0.0
      ],
      [
        0.0,
        0.0,
        0.0,
        1.0
      ]
    ],
    "dcmmeta_shape": [
      188,
      188,
      46,
      216
    ],
    "dcmmeta_slice_dim": 2,
    "dcmmeta_version": 0.6,
    "global": {
      "const": {
        "AcquisitionMatrix": [
          188,
          0,
          0,
          188
        ],
        "AngioFlag": "N",
        "BitsAllocated": 16,
        "BitsStored": 12,
        "Columns": 1316,
        "EchoNumbers": 1,
        "EchoTime": 20.0,
        "EchoTrainLength": 1,
        "FlipAngle": 80.0,
        "HighBit": 11,
        "ImageOrientationPatient": [
          0.99915556295306,
          0.04087402650456,
          -0.0041803082734,
          -0.0097766664984,
          0.13769435124752,
          -0.9904265154098
        ],
        "ImagePositionPatient": [
          -709.7861654161,
          -171.66411156359,
          698.73205770084
        ],
        "ImageType": [
          "ORIGINAL",
          "PRIMARY",
          "M",
          "MB",
          "ND",
          "MOSAIC"
        ],
        "ImagedNucleus": "1H",
        "ImagingFrequency": 297.205449,
        "InPlanePhaseEncodingDirection": "COL",
        "LargestImagePixelValue": 4095,
        "MRAcquisitionType": "2D",
        "MagneticFieldStrength": 6.98,
        "Manufacturer": "SIEMENS",
        "ManufacturerModelName": "Investigational_Device_7T",
        "Modality": "MR",
        "NumberOfAverages": 1.0,
        "NumberOfPhaseEncodingSteps": 141,
        "PercentPhaseFieldOfView": 100.0,
        "PercentSampling": 100.0,
        "PerformedProcedureStepStartTime": "164208.109000",
        "PhotometricInterpretation": "MONOCHROME2",
        "PixelBandwidth": 1400.0,
        "PixelRepresentation": 0,
        "PixelSpacing": [
          1.0957447290421,
          1.0957447290421
        ],
        "ProtocolName": "cmrr_mbep2d_bold_AP_run1",
        "RepetitionTime": 2600.0,
        "Rows": 1316,
        "SAR": 0.08472571262295,
        "SamplesPerPixel": 1,
        "ScanOptions": [
          "PFP",
          "FS"
        ],
        "ScanningSequence": "EP",
        "SequenceName": "epfid2d1_188",
        "SequenceVariant": [
          "SK",
          "SS"
        ],
        "SeriesDescription": "cmrr_mbep2d_bold_AP_run1",
        "SeriesNumber": 10,
        "SeriesTime": "171636.031000",
        "SliceLocation": -45.149179515982,
        "SliceThickness": 1.1000000238419,
        "SmallestImagePixelValue": 0,
        "SoftwareVersions": "syngo MR B17",
        "SpacingBetweenSlices": 1.1000000764209,
        "SpecificCharacterSet": "ISO_IR 100",
        "StudyID": "1",
        "StudyTime": "164208.062000",
        "TransmitCoilName": "32Ch_Head_7T",
        "VariableFlipAngleFlag": "N",
        "WindowCenterWidthExplanation": "Algo1",
        "dBdt": 0.0
      },
      "slices": {}
    },
    "modality": "bold",
    "run_id": 1,
    "session_id": "SES05",
    "subject_id": "S10",
    "task_id": "auditory",
    "time": {
      "samples": {
        "AcquisitionNumber": [
          1,
          2,
          3,
          4,
          5,
          6,
          7,
          8,
          9,
          10,
          11,
          12,
          13,
          14,
          15,
          16,
          17,
          18,
          19,
          20,
          21,
          22,
          23,
          24,
          25,
          26,
          27,
          28,
          29,
          30,
          31,
          32,
          33,
          34,
          35,
          36,
          37,
          38,
          39,
          40,
          41,
          42,
          43,
          44,
          45,
          46,
          47,
          48,
          49,
          50,
          51,
          52,
          53,
          54,
          55,
          56,
          57,
          58,
          59,
          60,
          61,
          62,
          63,
          64,
          65,
          66,
          67,
          68,
          69,
          70,
          71,
          72,
          73,
          74,
          75,
          76,
          77,
          78,
          79,
          80,
          81,
          82,
          83,
          84,
          85,
          86,
          87,
          88,
          89,
          90,
          91,
          92,
          93,
          94,
          95,
          96,
          97,
          98,
          99,
          100,
          101,
          102,
          103,
          104,
          105,
          106,
          107,
          108,
          109,
          110,
          111,
          112,
          113,
          114,
          115,
          116,
          117,
          118,
          119,
          120,
          121,
          122,
          123,
          124,
          125,
          126,
          127,
          128,
          129,
          130,
          131,
          132,
          133,
          134,
          135,
          136,
          137,
          138,
          139,
          140,
          141,
          142,
          143,
          144,
          145,
          146,
          147,
          148,
          149,
          150,
          151,
          152,
          153,
          154,
          155,
          156,
          157,
          158,
          159,
          160,
          161,
          162,
          163,
          164,
          165,
          166,
          167,
          168,
          169,
          170,
          171,
          172,
          173,
          174,
          175,
          176,
          177,
          178,
          179,
          180,
          181,
          182,
          183,
          184,
          185,
          186,
          187,
          188,
          189,
          190,
          191,
          192,
          193,
          194,
          195,
          196,
          197,
          198,
          199,
          200,
          201,
          202,
          203,
          204,
          205,
          206,
          207,
          208,
          209,
          210,
          211,
          212,
          213,
          214,
          215,
          216
        ],
        "AcquisitionTime": [
          "171535.380000",
          "171537.992500",
          "171540.602500",
          "171543.212500",
          "171545.822500",
          "171548.432500",
          "171551.045000",
          "171553.655000",
          "171556.265000",
          "171558.875000",
          "171601.485000",
          "171604.095000",
          "171606.707500",
          "171609.317500",
          "171611.927500",
          "171614.537500",
          "171617.147500",
          "171619.757500",
          "171622.370000",
          "171624.980000",
          "171627.590000",
          "171630.200000",
          "171632.810000",
          "171635.422500",
          "171638.032500",
          "171640.642500",
          "171643.252500",
          "171645.862500",
          "171648.472500",
          "171651.085000",
          "171653.695000",
          "171656.305000",
          "171658.915000",
          "171701.525000",
          "171704.137500",
          "171706.747500",
          "171709.357500",
          "171711.967500",
          "171714.577500",
          "171717.187500",
          "171719.800000",
          "171722.410000",
          "171725.020000",
          "171727.630000",
          "171730.240000",
          "171732.850000",
          "171735.462500",
          "171738.072500",
          "171740.682500",
          "171743.292500",
          "171745.902500",
          "171748.515000",
          "171751.125000",
          "171753.735000",
          "171756.345000",
          "171758.955000",
          "171801.565000",
          "171804.177500",
          "171806.787500",
          "171809.397500",
          "171812.007500",
          "171814.617500",
          "171817.227500",
          "171819.840000",
          "171822.450000",
          "171825.060000",
          "171827.670000",
          "171830.280000",
          "171832.892500",
          "171835.502500",
          "171838.112500",
          "171840.722500",
          "171843.332500",
          "171845.942500",
          "171848.555000",
          "171851.165000",
          "171853.775000",
          "171856.385000",
          "171858.995000",
          "171901.605000",
          "171904.217500",
          "171906.827500",
          "171909.437500",
          "171912.047500",
          "171914.657500",
          "171917.270000",
          "171919.880000",
          "171922.490000",
          "171925.100000",
          "171927.710000",
          "171930.320000",
          "171932.932500",
          "171935.542500",
          "171938.152500",
          "171940.762500",
          "171943.372500",
          "171945.982500",
          "171948.595000",
          "171951.205000",
          "171953.815000",
          "171956.425000",
          "171959.035000",
          "172001.647500",
          "172004.257500",
          "172006.867500",
          "172009.477500",
          "172012.087500",
          "172014.697500",
          "172017.310000",
          "172019.920000",
          "172022.530000",
          "172025.140000",
          "172027.750000",
          "172030.360000",
          "172032.972500",
          "172035.582500",
          "172038.192500",
          "172040.802500",
          "172043.412500",
          "172046.025000",
          "172048.635000",
          "172051.245000",
          "172053.855000",
          "172056.465000",
          "172059.075000",
          "172101.687500",
          "172104.297500",
          "172106.907500",
          "172109.517500",
          "172112.127500",
          "172114.737500",
          "172117.350000",
          "172119.960000",
          "172122.570000",
          "172125.180000",
          "172127.790000",
          "172130.402500",
          "172133.012500",
          "172135.622500",
          "172138.232500",
          "172140.842500",
          "172143.452500",
          "172146.065000",
          "172148.675000",
          "172151.285000",
          "172153.895000",
          "172156.505000",
          "172159.115000",
          "172201.727500",
          "172204.337500",
          "172206.947500",
          "172209.557500",
          "172212.167500",
          "172214.780000",
          "172217.390000",
          "172220.000000",
          "172222.610000",
          "172225.220000",
          "172227.830000",
          "172230.442500",
          "172233.052500",
          "172235.662500",
          "172238.272500",
          "172240.882500",
          "172243.492500",
          "172246.105000",
          "172248.715000",
          "172251.325000",
          "172253.935000",
          "172256.545000",
          "172259.157500",
          "172301.767500",
          "172304.377500",
          "172306.987500",
          "172309.597500",
          "172312.207500",
          "172314.820000",
          "172317.430000",
          "172320.040000",
          "172322.650000",
          "172325.260000",
          "172327.870000",
          "172330.482500",
          "172333.092500",
          "172335.702500",
          "172338.312500",
          "172340.922500",
          "172343.535000",
          "172346.145000",
          "172348.755000",
          "172351.365000",
          "172353.975000",
          "172356.585000",
          "172359.197500",
          "172401.807500",
          "172404.417500",
          "172407.027500",
          "172409.637500",
          "172412.247500",
          "172414.860000",
          "172417.470000",
          "172420.080000",
          "172422.690000",
          "172425.300000",
          "172427.912500",
          "172430.522500",
          "172433.132500",
          "172435.742500",
          "172438.352500",
          "172440.962500",
          "172443.575000",
          "172446.185000",
          "172448.795000",
          "172451.405000",
          "172454.015000",
          "172456.625000"
        ],
        "ContentTime": [
          "171636.031000",
          "171636.046000",
          "171636.046000",
          "171636.046000",
          "171636.046000",
          "171636.062000",
          "171636.062000",
          "171636.062000",
          "171636.078000",
          "171636.078000",
          "171636.078000",
          "171636.078000",
          "171636.078000",
          "171636.078000",
          "171636.093000",
          "171636.093000",
          "171636.093000",
          "171636.093000",
          "171636.093000",
          "171636.109000",
          "171636.109000",
          "171636.109000",
          "171736.031000",
          "171736.109000",
          "171736.109000",
          "171736.125000",
          "171736.125000",
          "171736.125000",
          "171736.125000",
          "171736.125000",
          "171736.125000",
          "171736.125000",
          "171736.140000",
          "171736.140000",
          "171736.140000",
          "171736.140000",
          "171736.156000",
          "171736.156000",
          "171736.156000",
          "171736.156000",
          "171736.156000",
          "171736.171000",
          "171736.171000",
          "171736.171000",
          "171736.171000",
          "171836.031000",
          "171836.031000",
          "171836.031000",
          "171836.031000",
          "171836.046000",
          "171836.046000",
          "171836.046000",
          "171836.046000",
          "171836.046000",
          "171836.062000",
          "171836.062000",
          "171836.062000",
          "171836.062000",
          "171836.062000",
          "171836.062000",
          "171836.062000",
          "171836.078000",
          "171836.078000",
          "171836.078000",
          "171836.078000",
          "171836.078000",
          "171836.078000",
          "171836.078000",
          "171836.093000",
          "171936.031000",
          "171936.031000",
          "171936.031000",
          "171936.046000",
          "171936.046000",
          "171936.046000",
          "171936.046000",
          "171936.062000",
          "171936.062000",
          "171936.062000",
          "171936.062000",
          "171936.078000",
          "171936.078000",
          "171936.078000",
          "171936.078000",
          "171936.078000",
          "171936.078000",
          "171936.078000",
          "171936.093000",
          "171936.093000",
          "171936.093000",
          "171936.093000",
          "171936.093000",
          "172036.031000",
          "172036.031000",
          "172036.031000",
          "172036.046000",
          "172036.046000",
          "172036.046000",
          "172036.046000",
          "172036.046000",
          "172036.046000",
          "172036.046000",
          "172036.046000",
          "172036.062000",
          "172036.062000",
          "172036.062000",
          "172036.062000",
          "172036.062000",
          "172036.062000",
          "172036.062000",
          "172036.078000",
          "172036.078000",
          "172036.078000",
          "172036.078000",
          "172036.093000",
          "172136.031000",
          "172136.031000",
          "172136.046000",
          "172136.046000",
          "172136.046000",
          "172136.046000",
          "172136.062000",
          "172136.062000",
          "172136.062000",
          "172136.062000",
          "172136.078000",
          "172136.078000",
          "172136.078000",
          "172136.078000",
          "172136.078000",
          "172136.078000",
          "172136.078000",
          "172136.093000",
          "172136.093000",
          "172136.093000",
          "172136.093000",
          "172136.093000",
          "172136.093000",
          "172236.031000",
          "172236.031000",
          "172236.031000",
          "172236.046000",
          "172236.046000",
          "172236.062000",
          "172236.062000",
          "172236.062000",
          "172236.062000",
          "172236.062000",
          "172236.062000",
          "172236.062000",
          "172236.093000",
          "172236.093000",
          "172236.093000",
          "172236.093000",
          "172236.093000",
          "172236.093000",
          "172236.093000",
          "172236.109000",
          "172236.109000",
          "172236.109000",
          "172236.109000",
          "172336.031000",
          "172336.031000",
          "172336.031000",
          "172336.031000",
          "172336.046000",
          "172336.046000",
          "172336.046000",
          "172336.046000",
          "172336.046000",
          "172336.046000",
          "172336.046000",
          "172336.046000",
          "172336.062000",
          "172336.062000",
          "172336.062000",
          "172336.062000",
          "172336.062000",
          "172336.062000",
          "172336.062000",
          "172336.078000",
          "172336.078000",
          "172336.078000",
          "172336.078000",
          "172436.031000",
          "172436.031000",
          "172436.031000",
          "172436.046000",
          "172436.046000",
          "172436.046000",
          "172436.046000",
          "172436.046000",
          "172436.046000",
          "172436.046000",
          "172436.046000",
          "172436.062000",
          "172436.062000",
          "172436.062000",
          "172436.062000",
          "172436.062000",
          "172436.062000",
          "172436.062000",
          "172436.078000",
          "172436.078000",
          "172436.093000",
          "172436.093000",
          "172436.093000",
          "172503.156000",
          "172503.156000",
          "172503.171000",
          "172503.171000",
          "172503.171000",
          "172503.171000",
          "172503.171000",
          "172503.171000",
          "172503.171000"
        ],
        "InstanceCreationTime": [
          "171636.031000",
          "171636.046000",
          "171636.046000",
          "171636.046000",
          "171636.046000",
          "171636.062000",
          "171636.062000",
          "171636.062000",
          "171636.078000",
          "171636.078000",
          "171636.078000",
          "171636.078000",
          "171636.078000",
          "171636.078000",
          "171636.093000",
          "171636.093000",
          "171636.093000",
          "171636.093000",
          "171636.093000",
          "171636.109000",
          "171636.109000",
          "171636.109000",
          "171736.031000",
          "171736.109000",
          "171736.109000",
          "171736.125000",
          "171736.125000",
          "171736.125000",
          "171736.125000",
          "171736.125000",
          "171736.125000",
          "171736.125000",
          "171736.140000",
          "171736.140000",
          "171736.140000",
          "171736.140000",
          "171736.156000",
          "171736.156000",
          "171736.156000",
          "171736.156000",
          "171736.156000",
          "171736.171000",
          "171736.171000",
          "171736.171000",
          "171736.171000",
          "171836.031000",
          "171836.031000",
          "171836.031000",
          "171836.031000",
          "171836.046000",
          "171836.046000",
          "171836.046000",
          "171836.046000",
          "171836.046000",
          "171836.062000",
          "171836.062000",
          "171836.062000",
          "171836.062000",
          "171836.062000",
          "171836.062000",
          "171836.062000",
          "171836.078000",
          "171836.078000",
          "171836.078000",
          "171836.078000",
          "171836.078000",
          "171836.078000",
          "171836.078000",
          "171836.093000",
          "171936.031000",
          "171936.031000",
          "171936.031000",
          "171936.046000",
          "171936.046000",
          "171936.046000",
          "171936.046000",
          "171936.062000",
          "171936.062000",
          "171936.062000",
          "171936.062000",
          "171936.078000",
          "171936.078000",
          "171936.078000",
          "171936.078000",
          "171936.078000",
          "171936.078000",
          "171936.078000",
          "171936.093000",
          "171936.093000",
          "171936.093000",
          "171936.093000",
          "171936.093000",
          "172036.031000",
          "172036.031000",
          "172036.031000",
          "172036.046000",
          "172036.046000",
          "172036.046000",
          "172036.046000",
          "172036.046000",
          "172036.046000",
          "172036.046000",
          "172036.046000",
          "172036.062000",
          "172036.062000",
          "172036.062000",
          "172036.062000",
          "172036.062000",
          "172036.062000",
          "172036.062000",
          "172036.078000",
          "172036.078000",
          "172036.078000",
          "172036.078000",
          "172036.093000",
          "172136.031000",
          "172136.031000",
          "172136.046000",
          "172136.046000",
          "172136.046000",
          "172136.046000",
          "172136.062000",
          "172136.062000",
          "172136.062000",
          "172136.062000",
          "172136.078000",
          "172136.078000",
          "172136.078000",
          "172136.078000",
          "172136.078000",
          "172136.078000",
          "172136.078000",
          "172136.093000",
          "172136.093000",
          "172136.093000",
          "172136.093000",
          "172136.093000",
          "172136.093000",
          "172236.031000",
          "172236.031000",
          "172236.031000",
          "172236.046000",
          "172236.046000",
          "172236.062000",
          "172236.062000",
          "172236.062000",
          "172236.062000",
          "172236.062000",
          "172236.062000",
          "172236.062000",
          "172236.093000",
          "172236.093000",
          "172236.093000",
          "172236.093000",
          "172236.093000",
          "172236.093000",
          "172236.093000",
          "172236.109000",
          "172236.109000",
          "172236.109000",
          "172236.109000",
          "172336.031000",
          "172336.031000",
          "172336.031000",
          "172336.031000",
          "172336.046000",
          "172336.046000",
          "172336.046000",
          "172336.046000",
          "172336.046000",
          "172336.046000",
          "172336.046000",
          "172336.046000",
          "172336.062000",
          "172336.062000",
          "172336.062000",
          "172336.062000",
          "172336.062000",
          "172336.062000",
          "172336.062000",
          "172336.078000",
          "172336.078000",
          "172336.078000",
          "172336.078000",
          "172436.031000",
          "172436.031000",
          "172436.031000",
          "172436.046000",
          "172436.046000",
          "172436.046000",
          "172436.046000",
          "172436.046000",
          "172436.046000",
          "172436.046000",
          "172436.046000",
          "172436.062000",
          "172436.062000",
          "172436.062000",
          "172436.062000",
          "172436.062000",
          "172436.062000",
          "172436.062000",
          "172436.078000",
          "172436.078000",
          "172436.093000",
          "172436.093000",
          "172436.093000",
          "172503.156000",
          "172503.156000",
          "172503.171000",
          "172503.171000",
          "172503.171000",
          "172503.171000",
          "172503.171000",
          "172503.171000",
          "172503.171000"
        ],
        "InstanceNumber": [
          1,
          2,
          3,
          4,
          5,
          6,
          7,
          8,
          9,
          10,
          11,
          12,
          13,
          14,
          15,
          16,
          17,
          18,
          19,
          20,
          21,
          22,
          23,
          24,
          25,
          26,
          27,
          28,
          29,
          30,
          31,
          32,
          33,
          34,
          35,
          36,
          37,
          38,
          39,
          40,
          41,
          42,
          43,
          44,
          45,
          46,
          47,
          48,
          49,
          50,
          51,
          52,
          53,
          54,
          55,
          56,
          57,
          58,
          59,
          60,
          61,
          62,
          63,
          64,
          65,
          66,
          67,
          68,
          69,
          70,
          71,
          72,
          73,
          74,
          75,
          76,
          77,
          78,
          79,
          80,
          81,
          82,
          83,
          84,
          85,
          86,
          87,
          88,
          89,
          90,
          91,
          92,
          93,
          94,
          95,
          96,
          97,
          98,
          99,
          100,
          101,
          102,
          103,
          104,
          105,
          106,
          107,
          108,
          109,
          110,
          111,
          112,
          113,
          114,
          115,
          116,
          117,
          118,
          119,
          120,
          121,
          122,
          123,
          124,
          125,
          126,
          127,
          128,
          129,
          130,
          131,
          132,
          133,
          134,
          135,
          136,
          137,
          138,
          139,
          140,
          141,
          142,
          143,
          144,
          145,
          146,
          147,
          148,
          149,
          150,
          151,
          152,
          153,
          154,
          155,
          156,
          157,
          158,
          159,
          160,
          161,
          162,
          163,
          164,
          165,
          166,
          167,
          168,
          169,
          170,
