{
  "aor": 0.0008845333333333333,
  "aqi": 0.014649826000000003,
  "bids_meta": {
    "AcquisitionMatrixPE": 188,
    "AcquisitionNumber": 1,
    "AcquisitionTime": "10:26:0.402500",
    "BandwidthPerPixelPhaseEncode": 19.46,
    "BaseResolution": 188,
    "ConversionSoftware": "dcm2niix",
    "ConversionSoftwareVersion": "v1.0.20180606 GCC4.8.5",
    "DelayTime": 1.2,
    "DerivedVendorReportedEchoSpacing": 0.000820013,
    "DeviceSerialNumber": "18930",
    "DwellTime": 1.9e-06,
    "EchoTime": 0.02,
    "EffectiveEchoSpacing": 0.000273338,
    "FlipAngle": 80,
    "ImageComments": "Unaliased_MB2_PE2",
    "ImageOrientationPatientDICOM": [
      0.996737,
      0.0336715,
      -0.0733541,
      -0.080142,
      0.304957,
      -0.948988
    ],
    "ImageType": [
      "ORIGINAL",
      "PRIMARY",
      "M",
      "MB",
      "ND",
      "MOSAIC"
    ],
    "InPlanePhaseEncodingDirectionDICOM": "COL",
    "InstitutionAddress": "Oxfordlaan_55_Maastricht_22AAA2_Limburg_NL_6229_EV",
    "InstitutionName": "Scannexus",
    "InstitutionalDepartmentName": "MRI_7T",
    "MRAcquisitionType": "2D",
    "MagneticFieldStrength": 6.98,
    "Manufacturer": "Siemens",
    "ManufacturersModelName": "Investigational_Device_7T",
    "Modality": "MR",
    "MultibandAccelerationFactor": 2,
    "ParallelReductionFactorInPlane": 3,
    "PartialFourier": 0.75,
    "PatientPosition": "HFS",
    "PercentPhaseFOV": 100,
    "PhaseEncodingDirection": "j",
    "PhaseEncodingSteps": 141,
    "PhaseResolution": 1,
    "PixelBandwidth": 1400,
    "ProcedureStepDescription": "FeDem_Faruk",
    "ProtocolName": "cmrr_mbep2d_bold_AP_run8",
    "PulseSequenceDetails": "%CustomerSeq%_cmrr_mbep2d_bold",
    "ReceiveCoilName": "32Ch_Head_7T",
    "ReconMatrixPE": 188,
    "RepetitionTime": 2.6,
    "SAR": 0.053663,
    "ScanOptions": "PFP_FS",
    "ScanningSequence": "EP",
    "SequenceName": "epfid2d1_188",
    "SequenceVariant": "SK_SS",
    "SeriesDescription": "cmrr_mbep2d_bold_AP_run8",
    "SeriesNumber": 20,
    "ShimSetting": [
      15,
      -215,
      478,
      327,
      -91,
      -137,
      182,
      154
    ],
    "SliceThickness": 1.1,
    "SliceTiming": [
      0,
      0.7325,
      0.06,
      0.795,
      0.1225,
      0.855,
      0.1825,
      0.915,
      0.245,
      0.9775,
      0.305,
      1.0375,
      0.365,
      1.1,
      0.4275,
      1.16,
      0.4875,
      1.2225,
      0.55,
      1.2825,
      0.61,
      1.345,
      0.6725,
      0,
      0.7325,
      0.06,
      0.795,
      0.1225,
      0.855,
      0.1825,
      0.915,
      0.245,
      0.9775,
      0.305,
      1.0375,
      0.365,
      1.1,
      0.4275,
      1.16,
      0.4875,
      1.2225,
      0.55,
      1.2825,
      0.61,
      1.345,
      0.6725
    ],
    "SoftwareVersions": "syngo_MR_B17",
    "SpacingBetweenSlices": 1.1,
    "StationName": "MRC18930",
    "TaskName": "auditory",
    "TotalReadoutTime": 0.0511141,
    "TxRefAmp": 195,
    "dataset": "ds001942",
    "dcmmeta_affine": [
      [
        -1.0921697616577148,
        -0.08781520277261734,
        0.010542330332100391,
        107.87574005126953
      ],
      [
        -0.03689532354474068,
        0.33415523171424866,
        -1.0469472408294678,
        20.20245361328125
      ],
      [
        -0.08037740737199783,
        1.0398486852645874,
        0.33732667565345764,
        -111.89634704589844
      ],
      [
        0.0,
        0.0,
        0.0,
        1.0
      ]
    ],
    "dcmmeta_reorient_transform": [
      [
        0.0,
        -1.0,
        0.0,
        187.0
      ],
      [
        1.0,
        0.0,
        0.0,
        0.0
      ],
      [
        0.0,
        0.0,
        1.0,
        0.0
      ],
      [
        0.0,
        0.0,
        0.0,
        1.0
      ]
    ],
    "dcmmeta_shape": [
      188,
      188,
      46,
      150
    ],
    "dcmmeta_slice_dim": 2,
    "dcmmeta_version": 0.6,
    "global": {
      "const": {
        "AcquisitionMatrix": [
          188,
          0,
          0,
          188
        ],
        "AngioFlag": "N",
        "BitsAllocated": 16,
        "BitsStored": 12,
        "Columns": 1316,
        "EchoNumbers": 1,
        "EchoTime": 20.0,
        "EchoTrainLength": 1,
        "FlipAngle": 80.0,
        "HighBit": 11,
        "ImageOrientationPatient": [
          0.99673737947879,
          0.03367145757805,
          -0.0733541361774,
          -0.0801420266192,
          0.3049571876327,
          -0.9489880764691
        ],
        "ImagePositionPatient": [
          -657.910247797,
          -291.96199391522,
          714.36287235052
        ],
        "ImageType": [
          "ORIGINAL",
          "PRIMARY",
          "M",
          "MB",
          "ND",
          "MOSAIC"
        ],
        "ImagedNucleus": "1H",
        "ImagingFrequency": 297.205593,
        "InPlanePhaseEncodingDirection": "COL",
        "LargestImagePixelValue": 4095,
        "MRAcquisitionType": "2D",
        "MagneticFieldStrength": 6.98,
        "Manufacturer": "SIEMENS",
        "ManufacturerModelName": "Investigational_Device_7T",
        "Modality": "MR",
        "NumberOfAverages": 1.0,
        "NumberOfPhaseEncodingSteps": 141,
        "PercentPhaseFieldOfView": 100.0,
        "PercentSampling": 100.0,
        "PerformedProcedureStepStartTime": "085813.937000",
        "PhotometricInterpretation": "MONOCHROME2",
        "PixelBandwidth": 1400.0,
        "PixelRepresentation": 0,
        "PixelSpacing": [
          1.0957447290421,
          1.0957447290421
        ],
        "ProtocolName": "cmrr_mbep2d_bold_AP_run8",
        "RepetitionTime": 2600.0,
        "Rows": 1316,
        "SAR": 0.05366303461636,
        "SamplesPerPixel": 1,
        "ScanOptions": [
          "PFP",
          "FS"
        ],
        "ScanningSequence": "EP",
        "SequenceName": "epfid2d1_188",
        "SequenceVariant": [
          "SK",
          "SS"
        ],
        "SeriesDescription": "cmrr_mbep2d_bold_AP_run8",
        "SeriesNumber": 20,
        "SeriesTime": "102609.046000",
        "SliceLocation": -52.508442610931,
        "SliceThickness": 1.1000000238419,
        "SmallestImagePixelValue": 0,
        "SoftwareVersions": "syngo MR B17",
        "SpacingBetweenSlices": 1.0999995674712,
        "SpecificCharacterSet": "ISO_IR 100",
        "StudyID": "1",
        "StudyTime": "085813.875000",
        "TransmitCoilName": "32Ch_Head_7T",
        "VariableFlipAngleFlag": "N",
        "WindowCenterWidthExplanation": "Algo1",
        "dBdt": 0.0
      },
      "slices": {}
    },
    "modality": "bold",
    "run_id": 8,
    "session_id": "SES02",
    "subject_id": "S06",
    "task_id": "auditory",
    "time": {
      "samples": {
        "AcquisitionNumber": [
          1,
          2,
          3,
          4,
          5,
          6,
          7,
          8,
          9,
          10,
          11,
          12,
          13,
          14,
          15,
          16,
          17,
          18,
          19,
          20,
          21,
          22,
          23,
          24,
          25,
          26,
          27,
          28,
          29,
          30,
          31,
          32,
          33,
          34,
          35,
          36,
          37,
          38,
          39,
          40,
          41,
          42,
          43,
          44,
          45,
          46,
          47,
          48,
          49,
          50,
          51,
          52,
          53,
          54,
          55,
          56,
          57,
          58,
          59,
          60,
          61,
          62,
          63,
          64,
          65,
          66,
          67,
          68,
          69,
          70,
          71,
          72,
          73,
          74,
          75,
          76,
          77,
          78,
          79,
          80,
          81,
          82,
          83,
          84,
          85,
          86,
          87,
          88,
          89,
          90,
          91,
          92,
          93,
          94,
          95,
          96,
          97,
          98,
          99,
          100,
          101,
          102,
          103,
          104,
          105,
          106,
          107,
          108,
          109,
          110,
          111,
          112,
          113,
          114,
          115,
          116,
          117,
          118,
          119,
          120,
          121,
          122,
          123,
          124,
          125,
          126,
          127,
          128,
          129,
          130,
          131,
          132,
          133,
          134,
          135,
          136,
          137,
          138,
          139,
          140,
          141,
          142,
          143,
          144,
          145,
          146,
          147,
          148,
          149,
          150
        ],
        "AcquisitionTime": [
          "102600.402500",
          "102603.012500",
          "102605.622500",
          "102608.232500",
          "102610.845000",
          "102613.455000",
          "102616.065000",
          "102618.675000",
          "102621.285000",
          "102623.895000",
          "102626.507500",
          "102629.117500",
          "102631.727500",
          "102634.337500",
          "102636.947500",
          "102639.557500",
          "102642.170000",
          "102644.780000",
          "102647.390000",
          "102650.000000",
          "102652.610000",
          "102655.222500",
          "102657.832500",
          "102700.442500",
          "102703.052500",
          "102705.662500",
          "102708.272500",
          "102710.885000",
          "102713.495000",
          "102716.105000",
          "102718.715000",
          "102721.325000",
          "102723.935000",
          "102726.547500",
          "102729.157500",
          "102731.767500",
          "102734.377500",
          "102736.987500",
          "102739.600000",
          "102742.210000",
          "102744.820000",
          "102747.430000",
          "102750.040000",
          "102752.650000",
          "102755.262500",
          "102757.872500",
          "102800.482500",
          "102803.092500",
          "102805.702500",
          "102808.315000",
          "102810.925000",
          "102813.535000",
          "102816.145000",
          "102818.755000",
          "102821.365000",
          "102823.977500",
          "102826.587500",
          "102829.197500",
          "102831.807500",
          "102834.417500",
          "102837.027500",
          "102839.640000",
          "102842.250000",
          "102844.860000",
          "102847.470000",
          "102850.080000",
          "102852.692500",
          "102855.302500",
          "102857.912500",
          "102900.522500",
          "102903.132500",
          "102905.742500",
          "102908.355000",
          "102910.965000",
          "102913.575000",
          "102916.185000",
          "102918.795000",
          "102921.405000",
          "102924.017500",
          "102926.627500",
          "102929.237500",
          "102931.847500",
          "102934.457500",
          "102937.070000",
          "102939.680000",
          "102942.290000",
          "102944.900000",
          "102947.510000",
          "102950.120000",
          "102952.732500",
          "102955.342500",
          "102957.952500",
          "103000.562500",
          "103003.172500",
          "103005.782500",
          "103008.395000",
          "103011.005000",
          "103013.615000",
          "103016.225000",
          "103018.835000",
          "103021.447500",
          "103024.057500",
          "103026.667500",
          "103029.277500",
          "103031.887500",
          "103034.497500",
          "103037.110000",
          "103039.720000",
          "103042.330000",
          "103044.940000",
          "103047.550000",
          "103050.160000",
          "103052.772500",
          "103055.382500",
          "103057.992500",
          "103100.602500",
          "103103.212500",
          "103105.825000",
          "103108.435000",
          "103111.045000",
          "103113.655000",
          "103116.265000",
          "103118.875000",
          "103121.487500",
          "103124.097500",
          "103126.707500",
          "103129.317500",
          "103131.927500",
          "103134.537500",
          "103137.150000",
          "103139.760000",
          "103142.370000",
          "103144.980000",
          "103147.590000",
          "103150.202500",
          "103152.812500",
          "103155.422500",
          "103158.032500",
          "103200.642500",
          "103203.252500",
          "103205.865000",
          "103208.475000",
          "103211.085000",
          "103213.695000",
          "103216.305000",
          "103218.915000",
          "103221.527500",
          "103224.137500",
          "103226.747500",
          "103229.357500"
        ],
        "ContentTime": [
          "102609.046000",
          "102609.546000",
          "102610.046000",
          "102612.046000",
          "102614.546000",
          "102617.546000",
          "102620.046000",
          "102622.546000",
          "102625.046000",
          "102627.546000",
          "102630.546000",
          "102633.046000",
          "102635.546000",
          "102638.046000",
          "102640.546000",
          "102643.546000",
          "102646.046000",
          "102648.546000",
          "102651.046000",
          "102654.046000",
          "102656.546000",
          "102659.046000",
          "102701.546000",
          "102704.046000",
          "102706.546000",
          "102709.546000",
          "102712.046000",
          "102714.546000",
          "102717.046000",
          "102719.546000",
          "102722.546000",
          "102725.046000",
          "102727.546000",
          "102730.046000",
          "102732.546000",
          "102735.546000",
          "102738.046000",
          "102740.546000",
          "102743.046000",
          "102745.546000",
          "102748.546000",
          "102751.046000",
          "102753.546000",
          "102756.046000",
          "102758.546000",
          "102801.546000",
          "102804.046000",
          "102806.546000",
          "102809.046000",
          "102811.546000",
          "102814.546000",
          "102817.046000",
          "102819.546000",
          "102822.046000",
          "102824.546000",
          "102827.546000",
          "102830.046000",
          "102832.546000",
          "102835.046000",
          "102837.546000",
          "102840.546000",
          "102843.046000",
          "102845.546000",
          "102848.046000",
          "102850.546000",
          "102853.546000",
          "102856.046000",
          "102858.546000",
          "102901.046000",
          "102903.546000",
          "102906.546000",
          "102909.046000",
          "102911.546000",
          "102914.046000",
          "102917.046000",
          "102919.546000",
          "102922.046000",
          "102924.546000",
          "102927.046000",
          "102929.546000",
          "102932.546000",
          "102935.046000",
          "102937.546000",
          "102940.046000",
          "102943.046000",
          "102945.546000",
          "102948.046000",
          "102950.546000",
          "102953.046000",
          "102955.546000",
          "102958.546000",
          "103001.046000",
          "103003.546000",
          "103006.046000",
          "103008.546000",
          "103011.546000",
          "103014.046000",
          "103016.546000",
          "103019.046000",
          "103021.546000",
          "103024.546000",
          "103027.046000",
          "103029.546000",
          "103032.046000",
          "103034.546000",
          "103037.546000",
          "103040.046000",
          "103042.546000",
          "103045.046000",
          "103047.546000",
          "103050.546000",
          "103053.046000",
          "103055.546000",
          "103058.046000",
          "103100.546000",
          "103103.546000",
          "103106.046000",
          "103108.546000",
          "103111.046000",
          "103113.546000",
          "103116.546000",
          "103119.046000",
          "103121.546000",
          "103124.046000",
          "103126.546000",
          "103129.546000",
          "103132.046000",
          "103134.546000",
          "103137.046000",
          "103139.546000",
          "103142.546000",
          "103145.046000",
          "103147.546000",
          "103150.046000",
          "103152.546000",
          "103155.546000",
          "103158.046000",
          "103200.546000",
          "103203.046000",
          "103206.046000",
          "103208.546000",
          "103211.046000",
          "103213.546000",
          "103216.046000",
          "103219.046000",
          "103221.546000",
          "103224.046000",
          "103226.546000",
          "103229.046000",
          "103236.515000"
        ],
        "InstanceCreationTime": [
          "102609.046000",
          "102609.546000",
          "102610.046000",
          "102612.046000",
          "102614.546000",
          "102617.546000",
          "102620.046000",
          "102622.546000",
          "102625.046000",
          "102627.546000",
          "102630.546000",
          "102633.046000",
          "102635.546000",
          "102638.046000",
          "102640.546000",
          "102643.546000",
          "102646.046000",
          "102648.546000",
          "102651.046000",
          "102654.046000",
          "102656.546000",
          "102659.046000",
          "102701.546000",
          "102704.046000",
          "102706.546000",
          "102709.546000",
          "102712.046000",
          "102714.546000",
          "102717.046000",
          "102719.546000",
          "102722.546000",
          "102725.046000",
          "102727.546000",
          "102730.046000",
          "102732.546000",
          "102735.546000",
          "102738.046000",
          "102740.546000",
          "102743.046000",
          "102745.546000",
          "102748.546000",
          "102751.046000",
          "102753.546000",
          "102756.046000",
          "102758.546000",
          "102801.546000",
          "102804.046000",
          "102806.546000",
          "102809.046000",
          "102811.546000",
          "102814.546000",
          "102817.046000",
          "102819.546000",
          "102822.046000",
          "102824.546000",
          "102827.546000",
          "102830.046000",
          "102832.546000",
          "102835.046000",
          "102837.546000",
          "102840.546000",
          "102843.046000",
          "102845.546000",
          "102848.046000",
          "102850.546000",
          "102853.546000",
          "102856.046000",
          "102858.546000",
          "102901.046000",
          "102903.546000",
          "102906.546000",
          "102909.046000",
          "102911.546000",
          "102914.046000",
          "102917.046000",
          "102919.546000",
          "102922.046000",
          "102924.546000",
          "102927.046000",
          "102929.546000",
          "102932.546000",
          "102935.046000",
          "102937.546000",
          "102940.046000",
          "102943.046000",
          "102945.546000",
          "102948.046000",
          "102950.546000",
          "102953.046000",
          "102955.546000",
          "102958.546000",
          "103001.046000",
          "103003.546000",
          "103006.046000",
          "103008.546000",
          "103011.546000",
          "103014.046000",
          "103016.546000",
          "103019.046000",
          "103021.546000",
          "103024.546000",
          "103027.046000",
          "103029.546000",
          "103032.046000",
          "103034.546000",
          "103037.546000",
          "103040.046000",
          "103042.546000",
          "103045.046000",
          "103047.546000",
          "103050.546000",
          "103053.046000",
          "103055.546000",
          "103058.046000",
          "103100.546000",
          "103103.546000",
          "103106.046000",
          "103108.546000",
          "103111.046000",
          "103113.546000",
          "103116.546000",
          "103119.046000",
          "103121.546000",
          "103124.046000",
          "103126.546000",
          "103129.546000",
          "103132.046000",
          "103134.546000",
          "103137.046000",
          "103139.546000",
          "103142.546000",
          "103145.046000",
          "103147.546000",
          "103150.046000",
          "103152.546000",
          "103155.546000",
          "103158.046000",
          "103200.546000",
          "103203.046000",
          "103206.046000",
          "103208.546000",
          "103211.046000",
          "103213.546000",
          "103216.046000",
          "103219.046000",
          "103221.546000",
          "103224.046000",
          "103226.546000",
          "103229.046000",
          "103236.515000"
        ],
        "InstanceNumber": [
          1,
          2,
          3,
          4,
          5,
          6,
          7,
          8,
          9,
          10,
          11,
          12,
          13,
          14,
          15,
          16,
          17,
          18,
          19,
          20,
          21,
          22,
          23,
          24,
          25,
          26,
          27,
          28,
          29,
          30,
          31,
          32,
          33,
          34,
          35,
          36,
          37,
          38,
          39,
          40,
          41,
          42,
          43,
          44,
          45,
          46,
          47,
          48,
          49,
          50,
          51,
          52,
          53,
          54,
          55,
          56,
          57,
          58,
          59,
          60,
          61,
          62,
          63,
          64,
          65,
          66,
          67,
          68,
          69,
          70,
          71,
          72,
          73,
          74,
          75,
          76,
          77,
          78,
          79,
          80,
          81,
          82,
          83,
          84,
          85,
          86,
          87,
          88,
          89,
          90,
          91,
          92,
          93,
          94,
          95,
          96,
          97,
          98,
          99,
          100,
          101,
          102,
          103,
          104,
          105,
          106,
          107,
          108,
          109,
          110,
          111,
          112,
          113,
          114,
          115,
          116,
          117,
          118,
          119,
          120,
          121,
          122,
          123,
          124,
          125,
          126,
          127,
          128,
          129,
          130,
          131,
          132,
          133,
          134,
          135,
          136,
          137,
          138,
          139,
          140,
          141,
          142,
          143,
          144,
          145,
          146,
          147,
          148,
          149,
          150
        ],
        "WindowCenter": [
          820.0,
          818.0,
          817.0,
          818.0,
          818.0,
          818.0,
          817.0,
          818.0,
          818.0,
          819.0,
          818.0,
          816.0,
          815.0,
          817.0,
          816.0,
          816.0,
          815.0,
          815.0,
          816.0,
          816.0,
          815.0,
          816.0,
          816.0,
          816.0,
          817.0,
          817.0,
          817.0,
          817.0,
          819.0,
          820.0,
          822.0,
          819.0,
          817.0,
          816.0,
          817.0,
          816.0,
          816.0,
          816.0,
          817.0,
          819.0,
          819.0,
          818.0,
          817.0,
          818.0,
          819.0,
          820.0,
          819.0,
          820.0,
          822.0,
          823.0,
          819.0,
          816.0,
          815.0,
          814.0,
          816.0,
          818.0,
          818.0,
          819.0,
          818.0,
          818.0,
          816.0,
          815.0,
          815.0,
          816.0,
          816.0,
          817.0,
          818.0,
          819.0,
          820.0,
          820.0,
          819.0,
          818.0,
          818.0,
          818.0,
          820.0,
          819.0,
          819.0,
          819.0,
          817.0,
          817.0,
          817.0,
          817.0,
          818.0,
          817.0,
          819.0,
          821.0,
          822.0,
          819.0,
          818.0,
          819.0,
          817.0,
          815.0,
          815.0,
          818.0,
          818.0,
          817.0,
          817.0,
          817.0,
          818.0,
          818.0,
          819.0,
          819.0,
          818.0,
          818.0,
          821.0,
          821.0,
          819.0,
          816.0,
          814.0,
          814.0,
          816.0,
          816.0,
          815.0,
          816.0,
          819.0,
          820.0,
          820.0,
          820.0,
          820.0,
          818.0,
          816.0,
          816.0,
          816.0,
          817.0,
          818.0,
          818.0,
          818.0,
          818.0,
          819.0,
          818.0,
          817.0,
          818.0,
          819.0,
          819.0,
          818.0,
          818.0,
          818.0,
          818.0,
          818.0,
          818.0,
          820.0,
          823.0,
          823.0,
          821.0,
          819.0,
          818.0,
          818.0,
          818.0,
          821.0,
          820.0
        ],
        "WindowWidth": [
          1815.0,
          1807.0,
          1805.0,
          1808.0,
          1809.0,
          1808.0,
          1807.0,
          1809.0,
          1807.0,
          1810.0,
          1807.0,
          1802.0,
          1801.0,
          1804.0,
          1803.0,
          1802.0,
          1801.0,
          1801.0,
          1801.0,
          1802.0,
          1798.0,
          1801.0,
          1801.0,
          1803.0,
          1804.0,
          1805.0,
          1805.0,
          1805.0,
          1811.0,
          1817.0,
          1822.0,
          1812.0,
          1804.0,
          1803.0,
          1804.0,
          1803.0,
          1801.0,
          1802.0,
          1804.0,
          1810.0,
          1812.0,
          1807.0,
          1806.0,
          1808.0,
          1812.0,
          1814.0,
          1812.0,
          1817.0,
          1822.0,
          1822.0,
          1810.0,
          1801.0,
          1797.0,
          1797.0,
          1802.0,
          1807.0,
          1808.0,
          1811.0,
          1808.0,
          1807.0,
          1802.0,
          1798.0,
          1799.0,
          1802.0,
          1803.0,
          1805.0,
          1809.0,
          1812.0,
          1815.0,
          1815.0,
          1812.0,
          1807.0,
          1807.0,
          1809.0,
          1815.0,
          1812.0,
          1811.0,
          1810.0,
          1806.0,
          1806.0,
          1805.0,
          1806.0,
          1806.0,
          1806.0,
          1810.0,
          1818.0,
          1819.0,
          1810.0,
          1807.0,
          1811.0,
          1804.0,
          1799.0,
          1799.0,
          1807.0,
          1807.0,
          1805.0,
          1804.0,
          1805.0,
          1807.0,
          1807.0,
          1811.0,
          1812.0,
          1809.0,
          1808.0,
          1817.0,
          1818.0,
          1811.0,
          1802.0,
          1797.0,
          1796.0,
          1801.0,
          1803.0,
          1799.0,
          1803.0,
          1813.0,
          1814.0,
          1813.0,
          1814.0,
          1814.0,
          1808.0,
          1801.0,
          1801.0,
          1802.0,
          1803.0,
          1807.0,
          1808.0,
          1808.0,
          1809.0,
          1810.0,
          1807.0,
          1804.0,
          1809.0,
          1812.0,
          1811.0,
          1806.0,
          1806.0,
          1807.0,
          1808.0,
          1808.0,
          1808.0,
          1815.0,
          1823.0,
          1824.0,
          1816.0,
          1811.0,
          1809.0,
          1808.0,
          1810.0,
          1817.0,
          1815.0
        ]
      },
      "slices": {}
    }
  },
  "dummy_trs": 0,
  "dvars_nstd": 76.1692377386577,
  "dvars_std": 1.0551492435570475,
  "dvars_vstd": 1.0157577214093956,
  "efc": 0.5874321275837349,
  "fber": 223.51380920410156,
  "fd_mean": 0.08052467906188417,
  "fd_num": 9,
  "fd_perc": 6.0,
  "fwhm_avg": 2.8835197570386613,
  "fwhm_x": 2.6084086231459374,
  "fwhm_y": 2.8562856996229127,
  "fwhm_z": 3.185864948347135,
  "gcor": 0.0043205,
  "gsr_x": -0.017045579850673676,
  "gsr_y": 0.07396915555000305,
  "provenance": {
    "md5sum": "4ba00e9e6b5e5fff9e7709e87dde5fe2",
    "settings": {
      "fd_thres": 0.2,
      "testing": false
    },
    "software": "mriqc",
    "version": "23.0.1",
    "webapi_port": null,
    "webapi_url": "https://mriqc.nimh.nih.gov/api/v1"
  },
  "size_t": 150,
  "size_x": 188,
  "size_y": 188,
  "size_z": 46,
  "snr": 2.1167736691149757,
  "spacing_tr": 2.5999999046325684,
  "spacing_x": 1.0957447290420532,
  "spacing_y": 1.0957447290420532,
  "spacing_z": 1.0999995470046997,
  "summary_bg_k": 31.878009278167085,
  "summary_bg_mad": 31.64861486754077,
  "summary_bg_mean": 94.41150665283203,
  "summary_bg_median": 52.82666778564453,
  "summary_bg_n": 1039718.0,
  "summary_bg_p05": 27.780000686645508,
  "summary_bg_p95": 297.933349609375,
