{
  "aor": 0.0006476666666666666,
  "aqi": 0.012797775333333332,
  "bids_meta": {
    "AcquisitionMatrixPE": 188,
    "AcquisitionNumber": 1,
    "AcquisitionTime": "10:07:41.000000",
    "BandwidthPerPixelPhaseEncode": 19.46,
    "BaseResolution": 188,
    "ConversionSoftware": "dcm2niix",
    "ConversionSoftwareVersion": "v1.0.20180606 GCC4.8.5",
    "DelayTime": 1.2,
    "DerivedVendorReportedEchoSpacing": 0.000820013,
    "DeviceSerialNumber": "18930",
    "DwellTime": 1.9e-06,
    "EchoTime": 0.02,
    "EffectiveEchoSpacing": 0.000273338,
    "FlipAngle": 80,
    "ImageComments": "Unaliased_MB2_PE2",
    "ImageOrientationPatientDICOM": [
      0.996737,
      0.0336715,
      -0.0733541,
      -0.080142,
      0.304957,
      -0.948988
    ],
    "ImageType": [
      "ORIGINAL",
      "PRIMARY",
      "M",
      "MB",
      "ND",
      "MOSAIC"
    ],
    "InPlanePhaseEncodingDirectionDICOM": "COL",
    "InstitutionAddress": "Oxfordlaan_55_Maastricht_22AAA2_Limburg_NL_6229_EV",
    "InstitutionName": "Scannexus",
    "InstitutionalDepartmentName": "MRI_7T",
    "MRAcquisitionType": "2D",
    "MagneticFieldStrength": 6.98,
    "Manufacturer": "Siemens",
    "ManufacturersModelName": "Investigational_Device_7T",
    "Modality": "MR",
    "MultibandAccelerationFactor": 2,
    "ParallelReductionFactorInPlane": 3,
    "PartialFourier": 0.75,
    "PatientPosition": "HFS",
    "PercentPhaseFOV": 100,
    "PhaseEncodingDirection": "j",
    "PhaseEncodingSteps": 141,
    "PhaseResolution": 1,
    "PixelBandwidth": 1400,
    "ProcedureStepDescription": "FeDem_Faruk",
    "ProtocolName": "cmrr_mbep2d_bold_AP_run6",
    "PulseSequenceDetails": "%CustomerSeq%_cmrr_mbep2d_bold",
    "ReceiveCoilName": "32Ch_Head_7T",
    "ReconMatrixPE": 188,
    "RepetitionTime": 2.6,
    "SAR": 0.0538524,
    "ScanOptions": "PFP_FS",
    "ScanningSequence": "EP",
    "SequenceName": "epfid2d1_188",
    "SequenceVariant": "SK_SS",
    "SeriesDescription": "cmrr_mbep2d_bold_AP_run6",
    "SeriesNumber": 16,
    "ShimSetting": [
      15,
      -215,
      478,
      327,
      -91,
      -137,
      182,
      154
    ],
    "SliceThickness": 1.1,
    "SliceTiming": [
      0,
      0.7325,
      0.06,
      0.7925,
      0.12,
      0.855,
      0.1825,
      0.915,
      0.2425,
      0.9775,
      0.305,
      1.0375,
      0.365,
      1.1,
      0.4275,
      1.16,
      0.4875,
      1.22,
      0.55,
      1.2825,
      0.61,
      1.3425,
      0.67,
      0,
      0.7325,
      0.06,
      0.7925,
      0.12,
      0.855,
      0.1825,
      0.915,
      0.2425,
      0.9775,
      0.305,
      1.0375,
      0.365,
      1.1,
      0.4275,
      1.16,
      0.4875,
      1.22,
      0.55,
      1.2825,
      0.61,
      1.3425,
      0.67
    ],
    "SoftwareVersions": "syngo_MR_B17",
    "SpacingBetweenSlices": 1.1,
    "StationName": "MRC18930",
    "TaskName": "auditory",
    "TotalReadoutTime": 0.0511141,
    "TxRefAmp": 195,
    "dataset": "ds001942",
    "dcmmeta_affine": [
      [
        -1.0921697616577148,
        -0.08781520277261734,
        0.010542330332100391,
        107.87574005126953
      ],
      [
        -0.03689532354474068,
        0.33415523171424866,
        -1.0469472408294678,
        20.20245361328125
      ],
      [
        -0.08037740737199783,
        1.0398486852645874,
        0.33732667565345764,
        -111.89634704589844
      ],
      [
        0.0,
        0.0,
        0.0,
        1.0
      ]
    ],
    "dcmmeta_reorient_transform": [
      [
        0.0,
        -1.0,
        0.0,
        187.0
      ],
      [
        1.0,
        0.0,
        0.0,
        0.0
      ],
      [
        0.0,
        0.0,
        1.0,
        0.0
      ],
      [
        0.0,
        0.0,
        0.0,
        1.0
      ]
    ],
    "dcmmeta_shape": [
      188,
      188,
      46,
      150
    ],
    "dcmmeta_slice_dim": 2,
    "dcmmeta_version": 0.6,
    "global": {
      "const": {
        "AcquisitionMatrix": [
          188,
          0,
          0,
          188
        ],
        "AngioFlag": "N",
        "BitsAllocated": 16,
        "BitsStored": 12,
        "Columns": 1316,
        "EchoNumbers": 1,
        "EchoTime": 20.0,
        "EchoTrainLength": 1,
        "FlipAngle": 80.0,
        "HighBit": 11,
        "ImageOrientationPatient": [
          0.99673737947879,
          0.03367145757805,
          -0.0733541361774,
          -0.0801420266192,
          0.3049571876327,
          -0.9489880764691
        ],
        "ImagePositionPatient": [
          -657.910247797,
          -291.96199391522,
          714.36287235052
        ],
        "ImageType": [
          "ORIGINAL",
          "PRIMARY",
          "M",
          "MB",
          "ND",
          "MOSAIC"
        ],
        "ImagedNucleus": "1H",
        "ImagingFrequency": 297.205585,
        "InPlanePhaseEncodingDirection": "COL",
        "LargestImagePixelValue": 4095,
        "MRAcquisitionType": "2D",
        "MagneticFieldStrength": 6.98,
        "Manufacturer": "SIEMENS",
        "ManufacturerModelName": "Investigational_Device_7T",
        "Modality": "MR",
        "NumberOfAverages": 1.0,
        "NumberOfPhaseEncodingSteps": 141,
        "PercentPhaseFieldOfView": 100.0,
        "PercentSampling": 100.0,
        "PerformedProcedureStepStartTime": "085813.937000",
        "PhotometricInterpretation": "MONOCHROME2",
        "PixelBandwidth": 1400.0,
        "PixelRepresentation": 0,
        "PixelSpacing": [
          1.0957447290421,
          1.0957447290421
        ],
        "ProtocolName": "cmrr_mbep2d_bold_AP_run6",
        "RepetitionTime": 2600.0,
        "Rows": 1316,
        "SAR": 0.05385238504567,
        "SamplesPerPixel": 1,
        "ScanOptions": [
          "PFP",
          "FS"
        ],
        "ScanningSequence": "EP",
        "SequenceName": "epfid2d1_188",
        "SequenceVariant": [
          "SK",
          "SS"
        ],
        "SeriesDescription": "cmrr_mbep2d_bold_AP_run6",
        "SeriesNumber": 16,
        "SeriesTime": "100749.812000",
        "SliceLocation": -52.508442610931,
        "SliceThickness": 1.1000000238419,
        "SmallestImagePixelValue": 0,
        "SoftwareVersions": "syngo MR B17",
        "SpacingBetweenSlices": 1.0999995674712,
        "SpecificCharacterSet": "ISO_IR 100",
        "StudyID": "1",
        "StudyTime": "085813.875000",
        "TransmitCoilName": "32Ch_Head_7T",
        "VariableFlipAngleFlag": "N",
        "WindowCenterWidthExplanation": "Algo1",
        "dBdt": 0.0
      },
      "slices": {}
    },
    "modality": "bold",
    "run_id": 6,
    "session_id": "SES02",
    "subject_id": "S06",
    "task_id": "auditory",
    "time": {
      "samples": {
        "AcquisitionNumber": [
          1,
          2,
          3,
          4,
          5,
          6,
          7,
          8,
          9,
          10,
          11,
          12,
          13,
          14,
          15,
          16,
          17,
          18,
          19,
          20,
          21,
          22,
          23,
          24,
          25,
          26,
          27,
          28,
          29,
          30,
          31,
          32,
          33,
          34,
          35,
          36,
          37,
          38,
          39,
          40,
          41,
          42,
          43,
          44,
          45,
          46,
          47,
          48,
          49,
          50,
          51,
          52,
          53,
          54,
          55,
          56,
          57,
          58,
          59,
          60,
          61,
          62,
          63,
          64,
          65,
          66,
          67,
          68,
          69,
          70,
          71,
          72,
          73,
          74,
          75,
          76,
          77,
          78,
          79,
          80,
          81,
          82,
          83,
          84,
          85,
          86,
          87,
          88,
          89,
          90,
          91,
          92,
          93,
          94,
          95,
          96,
          97,
          98,
          99,
          100,
          101,
          102,
          103,
          104,
          105,
          106,
          107,
          108,
          109,
          110,
          111,
          112,
          113,
          114,
          115,
          116,
          117,
          118,
          119,
          120,
          121,
          122,
          123,
          124,
          125,
          126,
          127,
          128,
          129,
          130,
          131,
          132,
          133,
          134,
          135,
          136,
          137,
          138,
          139,
          140,
          141,
          142,
          143,
          144,
          145,
          146,
          147,
          148,
          149,
          150
        ],
        "AcquisitionTime": [
          "100741.000000",
          "100743.610000",
          "100746.220000",
          "100748.830000",
          "100751.440000",
          "100754.050000",
          "100756.662500",
          "100759.272500",
          "100801.882500",
          "100804.492500",
          "100807.102500",
          "100809.715000",
          "100812.325000",
          "100814.935000",
          "100817.545000",
          "100820.155000",
          "100822.765000",
          "100825.377500",
          "100827.987500",
          "100830.597500",
          "100833.207500",
          "100835.817500",
          "100838.427500",
          "100841.040000",
          "100843.650000",
          "100846.260000",
          "100848.870000",
          "100851.480000",
          "100854.092500",
          "100856.702500",
          "100859.312500",
          "100901.922500",
          "100904.532500",
          "100907.142500",
          "100909.755000",
          "100912.365000",
          "100914.975000",
          "100917.585000",
          "100920.195000",
          "100922.805000",
          "100925.417500",
          "100928.027500",
          "100930.637500",
          "100933.247500",
          "100935.857500",
          "100938.470000",
          "100941.080000",
          "100943.690000",
          "100946.300000",
          "100948.910000",
          "100951.520000",
          "100954.132500",
          "100956.742500",
          "100959.352500",
          "101001.962500",
          "101004.572500",
          "101007.182500",
          "101009.795000",
          "101012.405000",
          "101015.015000",
          "101017.625000",
          "101020.235000",
          "101022.847500",
          "101025.457500",
          "101028.067500",
          "101030.677500",
          "101033.287500",
          "101035.897500",
          "101038.510000",
          "101041.120000",
          "101043.730000",
          "101046.340000",
          "101048.950000",
          "101051.560000",
          "101054.172500",
          "101056.782500",
          "101059.392500",
          "101102.002500",
          "101104.612500",
          "101107.225000",
          "101109.835000",
          "101112.445000",
          "101115.055000",
          "101117.665000",
          "101120.275000",
          "101122.887500",
          "101125.497500",
          "101128.107500",
          "101130.717500",
          "101133.327500",
          "101135.937500",
          "101138.550000",
          "101141.160000",
          "101143.770000",
          "101146.380000",
          "101148.990000",
          "101151.602500",
          "101154.212500",
          "101156.822500",
          "101159.432500",
          "101202.042500",
          "101204.652500",
          "101207.265000",
          "101209.875000",
          "101212.485000",
          "101215.095000",
          "101217.705000",
          "101220.315000",
          "101222.927500",
          "101225.537500",
          "101228.147500",
          "101230.757500",
          "101233.367500",
          "101235.980000",
          "101238.590000",
          "101241.200000",
          "101243.810000",
          "101246.420000",
          "101249.030000",
          "101251.642500",
          "101254.252500",
          "101256.862500",
          "101259.472500",
          "101302.082500",
          "101304.692500",
          "101307.305000",
          "101309.915000",
          "101312.525000",
          "101315.135000",
          "101317.745000",
          "101320.357500",
          "101322.967500",
          "101325.577500",
          "101328.187500",
          "101330.797500",
          "101333.407500",
          "101336.020000",
          "101338.630000",
          "101341.240000",
          "101343.850000",
          "101346.460000",
          "101349.070000",
          "101351.682500",
          "101354.292500",
          "101356.902500",
          "101359.512500",
          "101402.122500",
          "101404.735000",
          "101407.345000",
          "101409.955000"
        ],
        "ContentTime": [
          "100749.812000",
          "100750.312000",
          "100750.812000",
          "100753.312000",
          "100755.812000",
          "100758.312000",
          "100800.812000",
          "100803.812000",
          "100806.312000",
          "100808.812000",
          "100811.312000",
          "100813.812000",
          "100816.812000",
          "100819.312000",
          "100821.812000",
          "100824.312000",
          "100826.812000",
          "100829.812000",
          "100832.312000",
          "100834.812000",
          "100837.312000",
          "100839.812000",
          "100842.812000",
          "100845.312000",
          "100847.812000",
          "100850.312000",
          "100852.812000",
          "100855.812000",
          "100858.312000",
          "100900.812000",
          "100903.312000",
          "100905.812000",
          "100908.812000",
          "100911.312000",
          "100913.812000",
          "100916.312000",
          "100918.812000",
          "100921.812000",
          "100924.312000",
          "100926.812000",
          "100929.312000",
          "100931.812000",
          "100934.812000",
          "100937.312000",
          "100939.812000",
          "100942.312000",
          "100944.812000",
          "100947.812000",
          "100950.312000",
          "100952.812000",
          "100955.312000",
          "100957.812000",
          "101000.812000",
          "101003.312000",
          "101005.812000",
          "101008.312000",
          "101010.812000",
          "101013.812000",
          "101016.312000",
          "101018.812000",
          "101021.312000",
          "101023.812000",
          "101026.812000",
          "101029.312000",
          "101031.812000",
          "101034.312000",
          "101036.812000",
          "101039.812000",
          "101042.312000",
          "101044.812000",
          "101047.312000",
          "101049.812000",
          "101052.812000",
          "101055.312000",
          "101057.812000",
          "101100.312000",
          "101102.812000",
          "101105.812000",
          "101108.312000",
          "101110.812000",
          "101113.312000",
          "101115.812000",
          "101118.812000",
          "101121.312000",
          "101123.812000",
          "101126.312000",
          "101128.812000",
          "101131.812000",
          "101134.312000",
          "101136.812000",
          "101139.312000",
          "101141.812000",
          "101144.812000",
          "101147.312000",
          "101149.812000",
          "101152.312000",
          "101154.812000",
          "101157.812000",
          "101200.312000",
          "101202.812000",
          "101205.312000",
          "101207.812000",
          "101210.812000",
          "101213.312000",
          "101215.812000",
          "101218.312000",
          "101220.812000",
          "101223.812000",
          "101226.312000",
          "101228.812000",
          "101231.312000",
          "101233.812000",
          "101236.812000",
          "101239.312000",
          "101241.812000",
          "101244.312000",
          "101246.812000",
          "101249.812000",
          "101252.312000",
          "101254.812000",
          "101257.312000",
          "101259.812000",
          "101302.812000",
          "101305.312000",
          "101307.812000",
          "101310.312000",
          "101312.812000",
          "101315.812000",
          "101318.312000",
          "101320.812000",
          "101323.312000",
          "101325.812000",
          "101328.812000",
          "101331.312000",
          "101333.812000",
          "101336.312000",
          "101338.812000",
          "101341.812000",
          "101344.312000",
          "101346.812000",
          "101349.312000",
          "101351.812000",
          "101354.812000",
          "101357.312000",
          "101359.812000",
          "101402.312000",
          "101404.812000",
          "101407.812000",
          "101410.312000",
          "101417.500000"
        ],
        "InstanceCreationTime": [
          "100749.812000",
          "100750.312000",
          "100750.812000",
          "100753.312000",
          "100755.812000",
          "100758.312000",
          "100800.812000",
          "100803.812000",
          "100806.312000",
          "100808.812000",
          "100811.312000",
          "100813.812000",
          "100816.812000",
          "100819.312000",
          "100821.812000",
          "100824.312000",
          "100826.812000",
          "100829.812000",
          "100832.312000",
          "100834.812000",
          "100837.312000",
          "100839.812000",
          "100842.812000",
          "100845.312000",
          "100847.812000",
          "100850.312000",
          "100852.812000",
          "100855.812000",
          "100858.312000",
          "100900.812000",
          "100903.312000",
          "100905.812000",
          "100908.812000",
          "100911.312000",
          "100913.812000",
          "100916.312000",
          "100918.812000",
          "100921.812000",
          "100924.312000",
          "100926.812000",
          "100929.312000",
          "100931.812000",
          "100934.812000",
          "100937.312000",
          "100939.812000",
          "100942.312000",
          "100944.812000",
          "100947.812000",
          "100950.312000",
          "100952.812000",
          "100955.312000",
          "100957.812000",
          "101000.812000",
          "101003.312000",
          "101005.812000",
          "101008.312000",
          "101010.812000",
          "101013.812000",
          "101016.312000",
          "101018.812000",
          "101021.312000",
          "101023.812000",
          "101026.812000",
          "101029.312000",
          "101031.812000",
          "101034.312000",
          "101036.812000",
          "101039.812000",
          "101042.312000",
          "101044.812000",
          "101047.312000",
          "101049.812000",
          "101052.812000",
          "101055.312000",
          "101057.812000",
          "101100.312000",
          "101102.812000",
          "101105.812000",
          "101108.312000",
          "101110.812000",
          "101113.312000",
          "101115.812000",
          "101118.812000",
          "101121.312000",
          "101123.812000",
          "101126.312000",
          "101128.812000",
          "101131.812000",
          "101134.312000",
          "101136.812000",
          "101139.312000",
          "101141.812000",
          "101144.812000",
          "101147.312000",
          "101149.812000",
          "101152.312000",
          "101154.812000",
          "101157.812000",
          "101200.312000",
          "101202.812000",
          "101205.312000",
          "101207.812000",
          "101210.812000",
          "101213.312000",
          "101215.812000",
          "101218.312000",
          "101220.812000",
          "101223.812000",
          "101226.312000",
          "101228.812000",
          "101231.312000",
          "101233.812000",
          "101236.812000",
          "101239.312000",
          "101241.812000",
          "101244.312000",
          "101246.812000",
          "101249.812000",
          "101252.312000",
          "101254.812000",
          "101257.312000",
          "101259.812000",
          "101302.812000",
          "101305.312000",
          "101307.812000",
          "101310.312000",
          "101312.812000",
          "101315.812000",
          "101318.312000",
          "101320.812000",
          "101323.312000",
          "101325.812000",
          "101328.812000",
          "101331.312000",
          "101333.812000",
          "101336.312000",
          "101338.812000",
          "101341.812000",
          "101344.312000",
          "101346.812000",
          "101349.312000",
          "101351.812000",
          "101354.812000",
          "101357.312000",
          "101359.812000",
          "101402.312000",
          "101404.812000",
          "101407.812000",
          "101410.312000",
          "101417.500000"
        ],
        "InstanceNumber": [
          1,
          2,
          3,
          4,
          5,
          6,
          7,
          8,
          9,
          10,
          11,
          12,
          13,
          14,
          15,
          16,
          17,
          18,
          19,
          20,
          21,
          22,
          23,
          24,
          25,
          26,
          27,
          28,
          29,
          30,
          31,
          32,
          33,
          34,
          35,
          36,
          37,
          38,
          39,
          40,
          41,
          42,
          43,
          44,
          45,
          46,
          47,
          48,
          49,
          50,
          51,
          52,
          53,
          54,
          55,
          56,
          57,
          58,
          59,
          60,
          61,
          62,
          63,
          64,
          65,
          66,
          67,
          68,
          69,
          70,
          71,
          72,
          73,
          74,
          75,
          76,
          77,
          78,
          79,
          80,
          81,
          82,
          83,
          84,
          85,
          86,
          87,
          88,
          89,
          90,
          91,
          92,
          93,
          94,
          95,
          96,
          97,
          98,
          99,
          100,
          101,
          102,
          103,
          104,
          105,
          106,
          107,
          108,
          109,
          110,
          111,
          112,
          113,
          114,
          115,
          116,
          117,
          118,
          119,
          120,
          121,
          122,
          123,
          124,
          125,
          126,
          127,
          128,
          129,
          130,
          131,
          132,
          133,
          134,
          135,
          136,
          137,
          138,
          139,
          140,
          141,
          142,
          143,
          144,
          145,
          146,
          147,
          148,
          149,
          150
        ],
        "WindowCenter": [
          820.0,
          819.0,
          818.0,
          818.0,
          819.0,
          819.0,
          817.0,
          818.0,
          818.0,
          817.0,
          816.0,
          817.0,
          818.0,
          817.0,
          817.0,
          818.0,
          819.0,
          819.0,
          818.0,
          818.0,
          818.0,
          819.0,
          819.0,
          818.0,
          817.0,
          817.0,
          817.0,
          818.0,
          818.0,
          817.0,
          816.0,
          817.0,
          817.0,
          816.0,
          816.0,
          816.0,
          816.0,
          817.0,
          818.0,
          817.0,
          816.0,
          816.0,
          817.0,
          818.0,
          818.0,
          818.0,
          817.0,
          817.0,
          817.0,
          818.0,
          818.0,
          817.0,
          817.0,
          817.0,
          817.0,
          819.0,
          820.0,
          819.0,
          818.0,
          818.0,
          818.0,
          816.0,
          816.0,
          815.0,
          815.0,
          815.0,
          817.0,
          817.0,
          818.0,
          818.0,
          817.0,
          818.0,
          819.0,
          818.0,
          817.0,
          818.0,
          819.0,
          820.0,
          819.0,
          819.0,
          820.0,
          819.0,
          818.0,
          817.0,
          818.0,
          818.0,
          819.0,
          818.0,
          817.0,
          817.0,
          818.0,
          817.0,
          817.0,
          817.0,
          816.0,
          817.0,
          819.0,
          818.0,
          820.0,
          820.0,
          818.0,
          818.0,
          817.0,
          817.0,
          817.0,
          817.0,
          818.0,
          818.0,
          818.0,
          819.0,
          818.0,
          818.0,
          818.0,
          818.0,
          819.0,
          821.0,
          821.0,
          819.0,
          819.0,
          819.0,
          819.0,
          818.0,
          817.0,
          818.0,
          819.0,
          820.0,
          819.0,
          819.0,
          818.0,
          817.0,
          818.0,
          818.0,
          819.0,
          822.0,
          821.0,
          819.0,
          818.0,
          819.0,
          821.0,
          819.0,
          817.0,
          817.0,
          818.0,
          818.0,
          818.0,
          818.0,
          820.0,
          819.0,
          818.0,
          816.0
        ],
        "WindowWidth": [
          1814.0,
          1809.0,
          1807.0,
          1806.0,
          1812.0,
          1809.0,
          1805.0,
          1808.0,
          1808.0,
          1803.0,
          1801.0,
          1803.0,
          1806.0,
          1804.0,
          1804.0,
          1807.0,
          1809.0,
          1810.0,
          1808.0,
          1807.0,
          1809.0,
          1809.0,
          1811.0,
          1806.0,
          1804.0,
          1805.0,
          1804.0,
          1807.0,
          1807.0,
          1803.0,
          1802.0,
          1803.0,
          1803.0,
          1802.0,
          1803.0,
          1802.0,
          1802.0,
          1803.0,
          1806.0,
          1805.0,
          1802.0,
          1802.0,
          1804.0,
          1806.0,
          1808.0,
          1806.0,
          1805.0,
          1805.0,
          1806.0,
          1807.0,
          1807.0,
          1805.0,
          1804.0,
          1803.0,
          1806.0,
          1810.0,
          1813.0,
          1811.0,
          1807.0,
          1807.0,
          1806.0,
          1803.0,
          1800.0,
          1797.0,
          1798.0,
          1799.0,
          1803.0,
          1803.0,
          1806.0,
          1806.0,
          1804.0,
          1806.0,
          1810.0,
          1807.0,
          1803.0,
          1806.0,
          1811.0,
          1813.0,
          1809.0,
          1810.0,
          1812.0,
          1810.0,
          1806.0,
          1805.0,
          1805.0,
          1808.0,
          1811.0,
          1805.0,
          1803.0,
          1805.0,
          1806.0,
          1805.0,
          1804.0,
          1803.0,
          1802.0,
          1803.0,
          1811.0,
          1808.0,
          1814.0,
          1811.0,
          1807.0,
          1806.0,
          1804.0,
          1804.0,
          1802.0,
          1805.0,
          1807.0,
          1807.0,
          1805.0,
          1808.0,
          1806.0,
          1807.0,
          1807.0,
          1807.0,
          1809.0,
          1816.0,
          1815.0,
          1809.0,
          1809.0,
          1811.0,
          1811.0,
          1806.0,
          1805.0,
          1806.0,
          1811.0,
          1811.0,
          1811.0,
          1811.0,
          1808.0,
          1804.0,
          1806.0,
          1807.0,
          1810.0,
          1818.0,
          1815.0,
          1808.0,
          1807.0,
          1810.0,
          1815.0,
          1809.0,
          1804.0,
          1804.0,
          1806.0,
          1805.0,
          1807.0,
          1808.0,
          1812.0,
          1811.0,
          1805.0,
          1801.0
        ]
      },
      "slices": {}
    }
  },
  "dummy_trs": 0,
  "dvars_nstd": 76.48542667885906,
  "dvars_std": 1.0661492993288597,
  "dvars_vstd": 1.017737061208053,
  "efc": 0.5876089048620596,
  "fber": 232.60488891601562,
  "fd_mean": 0.05931885035070739,
  "fd_num": 1,
  "fd_perc": 0.6666666666666666,
  "fwhm_avg": 2.8920139013940322,
  "fwhm_x": 2.544808043418827,
  "fwhm_y": 2.9106414253876807,
  "fwhm_z": 3.2205922353755883,
  "gcor": 0.00243184,
  "gsr_x": -0.044436708092689514,
  "gsr_y": 0.08281112462282181,
  "provenance": {
    "md5sum": "9dba9d8f2739dd1a5804dae609586850",
    "settings": {
      "fd_thres": 0.2,
      "testing": false
    },
    "software": "mriqc",
    "version": "23.0.1",
    "webapi_port": null,
    "webapi_url": "https://mriqc.nimh.nih.gov/api/v1"
  },
  "size_t": 150,
  "size_x": 188,
  "size_y": 188,
  "size_z": 46,
  "snr": 2.0714374025617013,
  "spacing_tr": 2.5999999046325684,
  "spacing_x": 1.0957447290420532,
  "spacing_y": 1.0957447290420532,
  "spacing_z": 1.0999995470046997,
  "summary_bg_k": 23.972252351082663,
  "summary_bg_mad": 29.513666881097695,
  "summary_bg_mean": 86.94415283203125,
  "summary_bg_median": 51.37333297729492,
  "summary_bg_n": 1020866.0,
  "summary_bg_p05": 27.84000015258789,
  "summary_bg_p95": 268.4466857910156,
