{
  "aor": 0.0008790666666666667,
  "aqi": 0.015467990666666665,
  "bids_meta": {
    "AcquisitionMatrixPE": 188,
    "AcquisitionNumber": 1,
    "AcquisitionTime": "10:42:7.052500",
    "BandwidthPerPixelPhaseEncode": 19.46,
    "BaseResolution": 188,
    "ConversionSoftware": "dcm2niix",
    "ConversionSoftwareVersion": "v1.0.20180606 GCC4.8.5",
    "DelayTime": 1.2,
    "DerivedVendorReportedEchoSpacing": 0.000820013,
    "DeviceSerialNumber": "18930",
    "DwellTime": 1.9e-06,
    "EchoTime": 0.02,
    "EffectiveEchoSpacing": 0.000273338,
    "FlipAngle": 80,
    "ImageComments": "Unaliased_MB2_PE2",
    "ImageOrientationPatientDICOM": [
      0.996737,
      0.0336715,
      -0.0733541,
      -0.080142,
      0.304957,
      -0.948988
    ],
    "ImageType": [
      "ORIGINAL",
      "PRIMARY",
      "M",
      "MB",
      "ND",
      "MOSAIC"
    ],
    "InPlanePhaseEncodingDirectionDICOM": "COL",
    "InstitutionAddress": "Oxfordlaan_55_Maastricht_22AAA2_Limburg_NL_6229_EV",
    "InstitutionName": "Scannexus",
    "InstitutionalDepartmentName": "MRI_7T",
    "MRAcquisitionType": "2D",
    "MagneticFieldStrength": 6.98,
    "Manufacturer": "Siemens",
    "ManufacturersModelName": "Investigational_Device_7T",
    "Modality": "MR",
    "MultibandAccelerationFactor": 2,
    "ParallelReductionFactorInPlane": 3,
    "PartialFourier": 0.75,
    "PatientPosition": "HFS",
    "PercentPhaseFOV": 100,
    "PhaseEncodingDirection": "j",
    "PhaseEncodingSteps": 141,
    "PhaseResolution": 1,
    "PixelBandwidth": 1400,
    "ProcedureStepDescription": "FeDem_Faruk",
    "ProtocolName": "cmrr_mbep2d_bold_AP_run10",
    "PulseSequenceDetails": "%CustomerSeq%_cmrr_mbep2d_bold",
    "ReceiveCoilName": "32Ch_Head_7T",
    "ReconMatrixPE": 188,
    "RepetitionTime": 2.6,
    "SAR": 0.0535702,
    "ScanOptions": "PFP_FS",
    "ScanningSequence": "EP",
    "SequenceName": "epfid2d1_188",
    "SequenceVariant": "SK_SS",
    "SeriesDescription": "cmrr_mbep2d_bold_AP_run10",
    "SeriesNumber": 22,
    "ShimSetting": [
      15,
      -215,
      478,
      327,
      -91,
      -137,
      182,
      154
    ],
    "SliceThickness": 1.1,
    "SliceTiming": [
      0,
      0.7325,
      0.06,
      0.7925,
      0.1225,
      0.855,
      0.1825,
      0.915,
      0.2425,
      0.9775,
      0.305,
      1.0375,
      0.365,
      1.1,
      0.4275,
      1.16,
      0.4875,
      1.2225,
      0.55,
      1.2825,
      0.61,
      1.3425,
      0.6725,
      0,
      0.7325,
      0.06,
      0.7925,
      0.1225,
      0.855,
      0.1825,
      0.915,
      0.2425,
      0.9775,
      0.305,
      1.0375,
      0.365,
      1.1,
      0.4275,
      1.16,
      0.4875,
      1.2225,
      0.55,
      1.2825,
      0.61,
      1.3425,
      0.6725
    ],
    "SoftwareVersions": "syngo_MR_B17",
    "SpacingBetweenSlices": 1.1,
    "StationName": "MRC18930",
    "TaskName": "auditory",
    "TotalReadoutTime": 0.0511141,
    "TxRefAmp": 195,
    "dataset": "ds001942",
    "dcmmeta_affine": [
      [
        -1.0921697616577148,
        -0.08781520277261734,
        0.010542330332100391,
        107.87574005126953
      ],
      [
        -0.03689532354474068,
        0.33415523171424866,
        -1.0469472408294678,
        20.20245361328125
      ],
      [
        -0.08037740737199783,
        1.0398486852645874,
        0.33732667565345764,
        -111.89634704589844
      ],
      [
        0.0,
        0.0,
        0.0,
        1.0
      ]
    ],
    "dcmmeta_reorient_transform": [
      [
        0.0,
        -1.0,
        0.0,
        187.0
      ],
      [
        1.0,
        0.0,
        0.0,
        0.0
      ],
      [
        0.0,
        0.0,
        1.0,
        0.0
      ],
      [
        0.0,
        0.0,
        0.0,
        1.0
      ]
    ],
    "dcmmeta_shape": [
      188,
      188,
      46,
      150
    ],
    "dcmmeta_slice_dim": 2,
    "dcmmeta_version": 0.6,
    "global": {
      "const": {
        "AcquisitionMatrix": [
          188,
          0,
          0,
          188
        ],
        "AngioFlag": "N",
        "BitsAllocated": 16,
        "BitsStored": 12,
        "Columns": 1316,
        "EchoNumbers": 1,
        "EchoTime": 20.0,
        "EchoTrainLength": 1,
        "FlipAngle": 80.0,
        "HighBit": 11,
        "ImageOrientationPatient": [
          0.99673737947879,
          0.03367145757805,
          -0.0733541361774,
          -0.0801420266192,
          0.3049571876327,
          -0.9489880764691
        ],
        "ImagePositionPatient": [
          -657.910247797,
          -291.96199391522,
          714.36287235052
        ],
        "ImageType": [
          "ORIGINAL",
          "PRIMARY",
          "M",
          "MB",
          "ND",
          "MOSAIC"
        ],
        "ImagedNucleus": "1H",
        "ImagingFrequency": 297.205599,
        "InPlanePhaseEncodingDirection": "COL",
        "LargestImagePixelValue": 4095,
        "MRAcquisitionType": "2D",
        "MagneticFieldStrength": 6.98,
        "Manufacturer": "SIEMENS",
        "ManufacturerModelName": "Investigational_Device_7T",
        "Modality": "MR",
        "NumberOfAverages": 1.0,
        "NumberOfPhaseEncodingSteps": 141,
        "PercentPhaseFieldOfView": 100.0,
        "PercentSampling": 100.0,
        "PerformedProcedureStepStartTime": "085813.937000",
        "PhotometricInterpretation": "MONOCHROME2",
        "PixelBandwidth": 1400.0,
        "PixelRepresentation": 0,
        "PixelSpacing": [
          1.0957447290421,
          1.0957447290421
        ],
        "ProtocolName": "cmrr_mbep2d_bold_AP_run10",
        "RepetitionTime": 2600.0,
        "Rows": 1316,
        "SAR": 0.05357021832815,
        "SamplesPerPixel": 1,
        "ScanOptions": [
          "PFP",
          "FS"
        ],
        "ScanningSequence": "EP",
        "SequenceName": "epfid2d1_188",
        "SequenceVariant": [
          "SK",
          "SS"
        ],
        "SeriesDescription": "cmrr_mbep2d_bold_AP_run10",
        "SeriesNumber": 22,
        "SeriesTime": "104215.656000",
        "SliceLocation": -52.508442610931,
        "SliceThickness": 1.1000000238419,
        "SmallestImagePixelValue": 0,
        "SoftwareVersions": "syngo MR B17",
        "SpacingBetweenSlices": 1.0999995674712,
        "SpecificCharacterSet": "ISO_IR 100",
        "StudyID": "1",
        "StudyTime": "085813.875000",
        "TransmitCoilName": "32Ch_Head_7T",
        "VariableFlipAngleFlag": "N",
        "WindowCenterWidthExplanation": "Algo1",
        "dBdt": 0.0
      },
      "slices": {}
    },
    "modality": "bold",
    "run_id": 10,
    "session_id": "SES02",
    "subject_id": "S06",
    "task_id": "auditory",
    "time": {
      "samples": {
        "AcquisitionNumber": [
          1,
          2,
          3,
          4,
          5,
          6,
          7,
          8,
          9,
          10,
          11,
          12,
          13,
          14,
          15,
          16,
          17,
          18,
          19,
          20,
          21,
          22,
          23,
          24,
          25,
          26,
          27,
          28,
          29,
          30,
          31,
          32,
          33,
          34,
          35,
          36,
          37,
          38,
          39,
          40,
          41,
          42,
          43,
          44,
          45,
          46,
          47,
          48,
          49,
          50,
          51,
          52,
          53,
          54,
          55,
          56,
          57,
          58,
          59,
          60,
          61,
          62,
          63,
          64,
          65,
          66,
          67,
          68,
          69,
          70,
          71,
          72,
          73,
          74,
          75,
          76,
          77,
          78,
          79,
          80,
          81,
          82,
          83,
          84,
          85,
          86,
          87,
          88,
          89,
          90,
          91,
          92,
          93,
          94,
          95,
          96,
          97,
          98,
          99,
          100,
          101,
          102,
          103,
          104,
          105,
          106,
          107,
          108,
          109,
          110,
          111,
          112,
          113,
          114,
          115,
          116,
          117,
          118,
          119,
          120,
          121,
          122,
          123,
          124,
          125,
          126,
          127,
          128,
          129,
          130,
          131,
          132,
          133,
          134,
          135,
          136,
          137,
          138,
          139,
          140,
          141,
          142,
          143,
          144,
          145,
          146,
          147,
          148,
          149,
          150
        ],
        "AcquisitionTime": [
          "104207.052500",
          "104209.662500",
          "104212.272500",
          "104214.882500",
          "104217.492500",
          "104220.105000",
          "104222.715000",
          "104225.325000",
          "104227.935000",
          "104230.545000",
          "104233.155000",
          "104235.767500",
          "104238.377500",
          "104240.987500",
          "104243.597500",
          "104246.207500",
          "104248.820000",
          "104251.430000",
          "104254.040000",
          "104256.650000",
          "104259.260000",
          "104301.870000",
          "104304.482500",
          "104307.092500",
          "104309.702500",
          "104312.312500",
          "104314.922500",
          "104317.532500",
          "104320.145000",
          "104322.755000",
          "104325.365000",
          "104327.975000",
          "104330.585000",
          "104333.197500",
          "104335.807500",
          "104338.417500",
          "104341.027500",
          "104343.637500",
          "104346.247500",
          "104348.860000",
          "104351.470000",
          "104354.080000",
          "104356.690000",
          "104359.300000",
          "104401.910000",
          "104404.522500",
          "104407.132500",
          "104409.742500",
          "104412.352500",
          "104414.962500",
          "104417.575000",
          "104420.185000",
          "104422.795000",
          "104425.405000",
          "104428.015000",
          "104430.625000",
          "104433.237500",
          "104435.847500",
          "104438.457500",
          "104441.067500",
          "104443.677500",
          "104446.287500",
          "104448.900000",
          "104451.510000",
          "104454.120000",
          "104456.730000",
          "104459.340000",
          "104501.952500",
          "104504.562500",
          "104507.172500",
          "104509.782500",
          "104512.392500",
          "104515.002500",
          "104517.615000",
          "104520.225000",
          "104522.835000",
          "104525.445000",
          "104528.055000",
          "104530.665000",
          "104533.277500",
          "104535.887500",
          "104538.497500",
          "104541.107500",
          "104543.717500",
          "104546.330000",
          "104548.940000",
          "104551.550000",
          "104554.160000",
          "104556.770000",
          "104559.380000",
          "104601.992500",
          "104604.602500",
          "104607.212500",
          "104609.822500",
          "104612.432500",
          "104615.042500",
          "104617.655000",
          "104620.265000",
          "104622.875000",
          "104625.485000",
          "104628.095000",
          "104630.707500",
          "104633.317500",
          "104635.927500",
          "104638.537500",
          "104641.147500",
          "104643.757500",
          "104646.370000",
          "104648.980000",
          "104651.590000",
          "104654.200000",
          "104656.810000",
          "104659.420000",
          "104702.032500",
          "104704.642500",
          "104707.252500",
          "104709.862500",
          "104712.472500",
          "104715.085000",
          "104717.695000",
          "104720.305000",
          "104722.915000",
          "104725.525000",
          "104728.135000",
          "104730.747500",
          "104733.357500",
          "104735.967500",
          "104738.577500",
          "104741.187500",
          "104743.797500",
          "104746.410000",
          "104749.020000",
          "104751.630000",
          "104754.240000",
          "104756.850000",
          "104759.462500",
          "104802.072500",
          "104804.682500",
          "104807.292500",
          "104809.902500",
          "104812.512500",
          "104815.125000",
          "104817.735000",
          "104820.345000",
          "104822.955000",
          "104825.565000",
          "104828.175000",
          "104830.787500",
          "104833.397500",
          "104836.007500"
        ],
        "ContentTime": [
          "104215.656000",
          "104216.640000",
          "104216.656000",
          "104219.140000",
          "104221.640000",
          "104224.140000",
          "104226.640000",
          "104229.140000",
          "104232.140000",
          "104234.640000",
          "104237.140000",
          "104239.640000",
          "104242.140000",
          "104245.140000",
          "104247.640000",
          "104250.140000",
          "104252.640000",
          "104255.140000",
          "104258.140000",
          "104300.640000",
          "104303.140000",
          "104305.640000",
          "104308.140000",
          "104311.140000",
          "104313.640000",
          "104316.140000",
          "104318.640000",
          "104321.140000",
          "104324.140000",
          "104326.640000",
          "104329.140000",
          "104331.640000",
          "104334.140000",
          "104337.140000",
          "104339.640000",
          "104342.140000",
          "104344.640000",
          "104347.140000",
          "104350.140000",
          "104352.640000",
          "104355.140000",
          "104357.640000",
          "104400.140000",
          "104403.140000",
          "104405.640000",
          "104408.140000",
          "104410.640000",
          "104413.140000",
          "104416.140000",
          "104418.640000",
          "104421.140000",
          "104423.640000",
          "104426.140000",
          "104429.140000",
          "104431.640000",
          "104434.140000",
          "104436.640000",
          "104439.140000",
          "104442.140000",
          "104444.640000",
          "104447.140000",
          "104449.640000",
          "104452.140000",
          "104455.140000",
          "104457.640000",
          "104500.140000",
          "104502.640000",
          "104505.140000",
          "104508.140000",
          "104510.640000",
          "104513.140000",
          "104515.640000",
          "104518.140000",
          "104521.140000",
          "104523.640000",
          "104526.140000",
          "104528.640000",
          "104531.140000",
          "104534.140000",
          "104536.640000",
          "104539.140000",
          "104541.640000",
          "104544.140000",
          "104547.140000",
          "104549.640000",
          "104552.140000",
          "104554.640000",
          "104557.140000",
          "104600.140000",
          "104602.640000",
          "104605.140000",
          "104607.640000",
          "104610.140000",
          "104613.140000",
          "104615.640000",
          "104618.140000",
          "104620.640000",
          "104623.140000",
          "104626.140000",
          "104628.640000",
          "104631.140000",
          "104633.640000",
          "104636.140000",
          "104639.156000",
          "104641.640000",
          "104644.140000",
          "104646.640000",
          "104649.140000",
          "104652.140000",
          "104654.640000",
          "104657.140000",
          "104659.640000",
          "104702.140000",
          "104705.140000",
          "104707.640000",
          "104710.140000",
          "104712.640000",
          "104715.140000",
          "104718.140000",
          "104720.640000",
          "104723.140000",
          "104725.640000",
          "104728.140000",
          "104731.140000",
          "104733.640000",
          "104736.140000",
          "104738.640000",
          "104741.140000",
          "104744.140000",
          "104746.640000",
          "104749.140000",
          "104751.640000",
          "104754.140000",
          "104757.140000",
          "104759.640000",
          "104802.140000",
          "104804.640000",
          "104807.140000",
          "104810.140000",
          "104812.640000",
          "104815.140000",
          "104817.640000",
          "104820.140000",
          "104823.140000",
          "104825.640000",
          "104828.140000",
          "104830.640000",
          "104833.140000",
          "104836.140000",
          "104843.265000"
        ],
        "InstanceCreationTime": [
          "104215.656000",
          "104216.640000",
          "104216.656000",
          "104219.140000",
          "104221.640000",
          "104224.140000",
          "104226.640000",
          "104229.140000",
          "104232.140000",
          "104234.640000",
          "104237.140000",
          "104239.640000",
          "104242.140000",
          "104245.140000",
          "104247.640000",
          "104250.140000",
          "104252.640000",
          "104255.140000",
          "104258.140000",
          "104300.640000",
          "104303.140000",
          "104305.640000",
          "104308.140000",
          "104311.140000",
          "104313.640000",
          "104316.140000",
          "104318.640000",
          "104321.140000",
          "104324.140000",
          "104326.640000",
          "104329.140000",
          "104331.640000",
          "104334.140000",
          "104337.140000",
          "104339.640000",
          "104342.140000",
          "104344.640000",
          "104347.140000",
          "104350.140000",
          "104352.640000",
          "104355.140000",
          "104357.640000",
          "104400.140000",
          "104403.140000",
          "104405.640000",
          "104408.140000",
          "104410.640000",
          "104413.140000",
          "104416.140000",
          "104418.640000",
          "104421.140000",
          "104423.640000",
          "104426.140000",
          "104429.140000",
          "104431.640000",
          "104434.140000",
          "104436.640000",
          "104439.140000",
          "104442.140000",
          "104444.640000",
          "104447.140000",
          "104449.640000",
          "104452.140000",
          "104455.140000",
          "104457.640000",
          "104500.140000",
          "104502.640000",
          "104505.140000",
          "104508.140000",
          "104510.640000",
          "104513.140000",
          "104515.640000",
          "104518.140000",
          "104521.140000",
          "104523.640000",
          "104526.140000",
          "104528.640000",
          "104531.140000",
          "104534.140000",
          "104536.640000",
          "104539.140000",
          "104541.640000",
          "104544.140000",
          "104547.140000",
          "104549.640000",
          "104552.140000",
          "104554.640000",
          "104557.140000",
          "104600.140000",
          "104602.640000",
          "104605.140000",
          "104607.640000",
          "104610.140000",
          "104613.140000",
          "104615.640000",
          "104618.140000",
          "104620.640000",
          "104623.140000",
          "104626.140000",
          "104628.640000",
          "104631.140000",
          "104633.640000",
          "104636.140000",
          "104639.156000",
          "104641.640000",
          "104644.140000",
          "104646.640000",
          "104649.140000",
          "104652.140000",
          "104654.640000",
          "104657.140000",
          "104659.640000",
          "104702.140000",
          "104705.140000",
          "104707.640000",
          "104710.140000",
          "104712.640000",
          "104715.140000",
          "104718.140000",
          "104720.640000",
          "104723.140000",
          "104725.640000",
          "104728.140000",
          "104731.140000",
          "104733.640000",
          "104736.140000",
          "104738.640000",
          "104741.140000",
          "104744.140000",
          "104746.640000",
          "104749.140000",
          "104751.640000",
          "104754.140000",
          "104757.140000",
          "104759.640000",
          "104802.140000",
          "104804.640000",
          "104807.140000",
          "104810.140000",
          "104812.640000",
          "104815.140000",
          "104817.640000",
          "104820.140000",
          "104823.140000",
          "104825.640000",
          "104828.140000",
          "104830.640000",
          "104833.140000",
          "104836.140000",
          "104843.265000"
        ],
        "InstanceNumber": [
          1,
          2,
          3,
          4,
          5,
          6,
          7,
          8,
          9,
          10,
          11,
          12,
          13,
          14,
          15,
          16,
          17,
          18,
          19,
          20,
          21,
          22,
          23,
          24,
          25,
          26,
          27,
          28,
          29,
          30,
          31,
          32,
          33,
          34,
          35,
          36,
          37,
          38,
          39,
          40,
          41,
          42,
          43,
          44,
          45,
          46,
          47,
          48,
          49,
          50,
          51,
          52,
          53,
          54,
          55,
          56,
          57,
          58,
          59,
          60,
          61,
          62,
          63,
          64,
          65,
          66,
          67,
          68,
          69,
          70,
          71,
          72,
          73,
          74,
          75,
          76,
          77,
          78,
          79,
          80,
          81,
          82,
          83,
          84,
          85,
          86,
          87,
          88,
          89,
          90,
          91,
          92,
          93,
          94,
          95,
          96,
          97,
          98,
          99,
          100,
          101,
          102,
          103,
          104,
          105,
          106,
          107,
          108,
          109,
          110,
          111,
          112,
          113,
          114,
          115,
          116,
          117,
          118,
          119,
          120,
          121,
          122,
          123,
          124,
          125,
          126,
          127,
          128,
          129,
          130,
          131,
          132,
          133,
          134,
          135,
          136,
          137,
          138,
          139,
          140,
          141,
          142,
          143,
          144,
          145,
          146,
          147,
          148,
          149,
          150
        ],
        "WindowCenter": [
          816.0,
          816.0,
          817.0,
          816.0,
          815.0,
          816.0,
          816.0,
          818.0,
          818.0,
          818.0,
          819.0,
          818.0,
          817.0,
          818.0,
          821.0,
          824.0,
          821.0,
          819.0,
          817.0,
          819.0,
          821.0,
          820.0,
          818.0,
          818.0,
          818.0,
          819.0,
          820.0,
          819.0,
          819.0,
          822.0,
          823.0,
          821.0,
          818.0,
          816.0,
          817.0,
          818.0,
          818.0,
          818.0,
          817.0,
          817.0,
          817.0,
          819.0,
          819.0,
          818.0,
          819.0,
          818.0,
          819.0,
          821.0,
          823.0,
          823.0,
          822.0,
          824.0,
          820.0,
          816.0,
          814.0,
          813.0,
          812.0,
          813.0,
          814.0,
          816.0,
          819.0,
          821.0,
          823.0,
          822.0,
          822.0,
          821.0,
          818.0,
          816.0,
          814.0,
          814.0,
          815.0,
          816.0,
          817.0,
          817.0,
          818.0,
          820.0,
          821.0,
          824.0,
          822.0,
          821.0,
          819.0,
          817.0,
          815.0,
          816.0,
          816.0,
          816.0,
          816.0,
          817.0,
          818.0,
          819.0,
          819.0,
          820.0,
          819.0,
          821.0,
          821.0,
          820.0,
          820.0,
          819.0,
          817.0,
          819.0,
          819.0,
          822.0,
          820.0,
          820.0,
          818.0,
          819.0,
          819.0,
          820.0,
          819.0,
          820.0,
          819.0,
          818.0,
          816.0,
          816.0,
          817.0,
          818.0,
          817.0,
          818.0,
          819.0,
          819.0,
          820.0,
          819.0,
          820.0,
          821.0,
          821.0,
          820.0,
          819.0,
          819.0,
          818.0,
          819.0,
          821.0,
          822.0,
          820.0,
          820.0,
          820.0,
          821.0,
          822.0,
          821.0,
          821.0,
          823.0,
          825.0,
          823.0,
          819.0,
          816.0,
          816.0,
          815.0,
          816.0,
          817.0,
          817.0,
          818.0
        ],
        "WindowWidth": [
          1803.0,
          1803.0,
          1805.0,
          1803.0,
          1801.0,
          1802.0,
          1804.0,
          1809.0,
          1809.0,
          1810.0,
          1811.0,
          1809.0,
          1806.0,
          1808.0,
          1819.0,
          1826.0,
          1818.0,
          1810.0,
          1806.0,
          1812.0,
          1816.0,
          1815.0,
          1809.0,
          1809.0,
          1807.0,
          1811.0,
          1814.0,
          1810.0,
          1813.0,
          1821.0,
          1825.0,
          1817.0,
          1806.0,
          1803.0,
          1805.0,
          1808.0,
          1808.0,
          1807.0,
          1807.0,
          1804.0,
          1806.0,
          1811.0,
          1810.0,
          1809.0,
          1810.0,
          1810.0,
          1812.0,
          1819.0,
          1825.0,
          1825.0,
          1822.0,
          1826.0,
          1814.0,
          1802.0,
          1795.0,
          1792.0,
          1789.0,
          1794.0,
          1795.0,
          1803.0,
          1811.0,
          1818.0,
          1826.0,
          1821.0,
          1821.0,
          1817.0,
          1808.0,
          1802.0,
          1797.0,
          1797.0,
          1799.0,
          1802.0,
          1805.0,
          1807.0,
          1810.0,
          1815.0,
          1819.0,
          1826.0,
          1821.0,
          1817.0,
          1811.0,
          1804.0,
          1799.0,
          1801.0,
          1803.0,
          1802.0,
          1804.0,
          1807.0,
          1809.0,
          1810.0,
          1813.0,
          1814.0,
          1811.0,
          1818.0,
          1819.0,
          1816.0,
          1813.0,
          1810.0,
          1805.0,
          1811.0,
          1814.0,
          1823.0,
          1815.0,
          1813.0,
          1809.0,
          1812.0,
          1812.0,
          1814.0,
          1813.0,
          1814.0,
          1811.0,
          1807.0,
          1803.0,
          1802.0,
          1804.0,
          1807.0,
          1807.0,
          1808.0,
          1812.0,
          1812.0,
          1813.0,
          1812.0,
          1813.0,
          1819.0,
          1817.0,
          1814.0,
          1813.0,
          1811.0,
          1809.0,
          1810.0,
          1817.0,
          1819.0,
          1815.0,
          1815.0,
          1814.0,
          1818.0,
          1819.0,
          1816.0,
          1819.0,
          1826.0,
          1832.0,
          1824.0,
          1810.0,
          1803.0,
          1801.0,
          1799.0,
          1803.0,
          1807.0,
          1806.0,
          1808.0
        ]
      },
      "slices": {}
    }
  },
  "dummy_trs": 0,
  "dvars_nstd": 77.18334346449663,
  "dvars_std": 1.0626173516778519,
  "dvars_vstd": 1.019754150872483,
  "efc": 0.5874288073197979,
  "fber": 225.09530639648438,
  "fd_mean": 0.07806926933721259,
  "fd_num": 8,
  "fd_perc": 5.333333333333333,
  "fwhm_avg": 2.924083178155388,
  "fwhm_x": 2.553514450802908,
  "fwhm_y": 2.9274519100852467,
  "fwhm_z": 3.291283173578009,
  "gcor": 0.00671733,
  "gsr_x": -0.04419001191854477,
  "gsr_y": 0.08219145983457565,
  "provenance": {
    "md5sum": "2d70ded8fff2e84d7e82353999939ec9",
    "settings": {
      "fd_thres": 0.2,
      "testing": false
    },
    "software": "mriqc",
    "version": "23.0.1",
    "webapi_port": null,
    "webapi_url": "https://mriqc.nimh.nih.gov/api/v1"
  },
  "size_t": 150,
  "size_x": 188,
  "size_y": 188,
  "size_z": 46,
  "snr": 2.064434174544144,
  "spacing_tr": 2.5999999046325684,
  "spacing_x": 1.0957447290420532,
  "spacing_y": 1.0957447290420532,
  "spacing_z": 1.0999995470046997,
  "summary_bg_k": 23.728818221469083,
  "summary_bg_mad": 30.679983755797608,
  "summary_bg_mean": 87.39659881591797,
  "summary_bg_median": 52.22666931152344,
  "summary_bg_n": 1022102.0,
  "summary_bg_p05": 27.940000534057617,
  "summary_bg_p95": 267.5396743774411,
