{
  "aor": 0.0009094,
  "aqi": 0.026040997999999996,
  "bids_meta": {
    "AcquisitionMatrixPE": 188,
    "AcquisitionNumber": 1,
    "AcquisitionTime": "09:50:58.720000",
    "BandwidthPerPixelPhaseEncode": 19.46,
    "BaseResolution": 188,
    "ConversionSoftware": "dcm2niix",
    "ConversionSoftwareVersion": "v1.0.20180606 GCC4.8.5",
    "DelayTime": 1.2,
    "DerivedVendorReportedEchoSpacing": 0.000820013,
    "DeviceSerialNumber": "18930",
    "DwellTime": 1.9e-06,
    "EchoTime": 0.02,
    "EffectiveEchoSpacing": 0.000273338,
    "FlipAngle": 80,
    "ImageComments": "Unaliased_MB2_PE2",
    "ImageOrientationPatientDICOM": [
      0.996737,
      0.0336715,
      -0.0733541,
      -0.080142,
      0.304957,
      -0.948988
    ],
    "ImageType": [
      "ORIGINAL",
      "PRIMARY",
      "M",
      "MB",
      "ND",
      "MOSAIC"
    ],
    "InPlanePhaseEncodingDirectionDICOM": "COL",
    "InstitutionAddress": "Oxfordlaan_55_Maastricht_22AAA2_Limburg_NL_6229_EV",
    "InstitutionName": "Scannexus",
    "InstitutionalDepartmentName": "MRI_7T",
    "MRAcquisitionType": "2D",
    "MagneticFieldStrength": 6.98,
    "Manufacturer": "Siemens",
    "ManufacturersModelName": "Investigational_Device_7T",
    "Modality": "MR",
    "MultibandAccelerationFactor": 2,
    "ParallelReductionFactorInPlane": 3,
    "PartialFourier": 0.75,
    "PatientPosition": "HFS",
    "PercentPhaseFOV": 100,
    "PhaseEncodingDirection": "j",
    "PhaseEncodingSteps": 141,
    "PhaseResolution": 1,
    "PixelBandwidth": 1400,
    "ProcedureStepDescription": "FeDem_Faruk",
    "ProtocolName": "cmrr_mbep2d_bold_AP_run4",
    "PulseSequenceDetails": "%CustomerSeq%_cmrr_mbep2d_bold",
    "ReceiveCoilName": "32Ch_Head_7T",
    "ReconMatrixPE": 188,
    "RepetitionTime": 2.6,
    "SAR": 0.0537189,
    "ScanOptions": "PFP_FS",
    "ScanningSequence": "EP",
    "SequenceName": "epfid2d1_188",
    "SequenceVariant": "SK_SS",
    "SeriesDescription": "cmrr_mbep2d_bold_AP_run4",
    "SeriesNumber": 14,
    "ShimSetting": [
      15,
      -215,
      478,
      327,
      -91,
      -137,
      182,
      154
    ],
    "SliceThickness": 1.1,
    "SliceTiming": [
      0,
      0.7325,
      0.0625,
      0.795,
      0.1225,
      0.855,
      0.185,
      0.9175,
      0.245,
      0.9775,
      0.305,
      1.04,
      0.3675,
      1.1,
      0.4275,
      1.1625,
      0.49,
      1.2225,
      0.55,
      1.2825,
      0.6125,
      1.345,
      0.6725,
      0,
      0.7325,
      0.0625,
      0.795,
      0.1225,
      0.855,
      0.185,
      0.9175,
      0.245,
      0.9775,
      0.305,
      1.04,
      0.3675,
      1.1,
      0.4275,
      1.1625,
      0.49,
      1.2225,
      0.55,
      1.2825,
      0.6125,
      1.345,
      0.6725
    ],
    "SoftwareVersions": "syngo_MR_B17",
    "SpacingBetweenSlices": 1.1,
    "StationName": "MRC18930",
    "TaskName": "auditory",
    "TotalReadoutTime": 0.0511141,
    "TxRefAmp": 195,
    "dataset": "ds001942",
    "dcmmeta_affine": [
      [
        -1.0921697616577148,
        -0.08781520277261734,
        0.010542330332100391,
        107.87574005126953
      ],
      [
        -0.03689532354474068,
        0.33415523171424866,
        -1.0469472408294678,
        20.20245361328125
      ],
      [
        -0.08037740737199783,
        1.0398486852645874,
        0.33732667565345764,
        -111.89634704589844
      ],
      [
        0.0,
        0.0,
        0.0,
        1.0
      ]
    ],
    "dcmmeta_reorient_transform": [
      [
        0.0,
        -1.0,
        0.0,
        187.0
      ],
      [
        1.0,
        0.0,
        0.0,
        0.0
      ],
      [
        0.0,
        0.0,
        1.0,
        0.0
      ],
      [
        0.0,
        0.0,
        0.0,
        1.0
      ]
    ],
    "dcmmeta_shape": [
      188,
      188,
      46,
      150
    ],
    "dcmmeta_slice_dim": 2,
    "dcmmeta_version": 0.6,
    "global": {
      "const": {
        "AcquisitionMatrix": [
          188,
          0,
          0,
          188
        ],
        "AngioFlag": "N",
        "BitsAllocated": 16,
        "BitsStored": 12,
        "Columns": 1316,
        "EchoNumbers": 1,
        "EchoTime": 20.0,
        "EchoTrainLength": 1,
        "FlipAngle": 80.0,
        "HighBit": 11,
        "ImageOrientationPatient": [
          0.99673737947879,
          0.03367145757805,
          -0.0733541361774,
          -0.0801420266192,
          0.3049571876327,
          -0.9489880764691
        ],
        "ImagePositionPatient": [
          -657.910247797,
          -291.96199391522,
          714.36287235052
        ],
        "ImageType": [
          "ORIGINAL",
          "PRIMARY",
          "M",
          "MB",
          "ND",
          "MOSAIC"
        ],
        "ImagedNucleus": "1H",
        "ImagingFrequency": 297.205577,
        "InPlanePhaseEncodingDirection": "COL",
        "LargestImagePixelValue": 4095,
        "MRAcquisitionType": "2D",
        "MagneticFieldStrength": 6.98,
        "Manufacturer": "SIEMENS",
        "ManufacturerModelName": "Investigational_Device_7T",
        "Modality": "MR",
        "NumberOfAverages": 1.0,
        "NumberOfPhaseEncodingSteps": 141,
        "PercentPhaseFieldOfView": 100.0,
        "PercentSampling": 100.0,
        "PerformedProcedureStepStartTime": "085813.937000",
        "PhotometricInterpretation": "MONOCHROME2",
        "PixelBandwidth": 1400.0,
        "PixelRepresentation": 0,
        "PixelSpacing": [
          1.0957447290421,
          1.0957447290421
        ],
        "ProtocolName": "cmrr_mbep2d_bold_AP_run4",
        "RepetitionTime": 2600.0,
        "Rows": 1316,
        "SAR": 0.05371887606837,
        "SamplesPerPixel": 1,
        "ScanOptions": [
          "PFP",
          "FS"
        ],
        "ScanningSequence": "EP",
        "SequenceName": "epfid2d1_188",
        "SequenceVariant": [
          "SK",
          "SS"
        ],
        "SeriesDescription": "cmrr_mbep2d_bold_AP_run4",
        "SeriesNumber": 14,
        "SeriesTime": "095107.515000",
        "SliceLocation": -52.508442610931,
        "SliceThickness": 1.1000000238419,
        "SmallestImagePixelValue": 0,
        "SoftwareVersions": "syngo MR B17",
        "SpacingBetweenSlices": 1.0999995674712,
        "SpecificCharacterSet": "ISO_IR 100",
        "StudyID": "1",
        "StudyTime": "085813.875000",
        "TransmitCoilName": "32Ch_Head_7T",
        "VariableFlipAngleFlag": "N",
        "WindowCenterWidthExplanation": "Algo1",
        "dBdt": 0.0
      },
      "slices": {}
    },
    "modality": "bold",
    "run_id": 4,
    "session_id": "SES02",
    "subject_id": "S06",
    "task_id": "auditory",
    "time": {
      "samples": {
        "AcquisitionNumber": [
          1,
          2,
          3,
          4,
          5,
          6,
          7,
          8,
          9,
          10,
          11,
          12,
          13,
          14,
          15,
          16,
          17,
          18,
          19,
          20,
          21,
          22,
          23,
          24,
          25,
          26,
          27,
          28,
          29,
          30,
          31,
          32,
          33,
          34,
          35,
          36,
          37,
          38,
          39,
          40,
          41,
          42,
          43,
          44,
          45,
          46,
          47,
          48,
          49,
          50,
          51,
          52,
          53,
          54,
          55,
          56,
          57,
          58,
          59,
          60,
          61,
          62,
          63,
          64,
          65,
          66,
          67,
          68,
          69,
          70,
          71,
          72,
          73,
          74,
          75,
          76,
          77,
          78,
          79,
          80,
          81,
          82,
          83,
          84,
          85,
          86,
          87,
          88,
          89,
          90,
          91,
          92,
          93,
          94,
          95,
          96,
          97,
          98,
          99,
          100,
          101,
          102,
          103,
          104,
          105,
          106,
          107,
          108,
          109,
          110,
          111,
          112,
          113,
          114,
          115,
          116,
          117,
          118,
          119,
          120,
          121,
          122,
          123,
          124,
          125,
          126,
          127,
          128,
          129,
          130,
          131,
          132,
          133,
          134,
          135,
          136,
          137,
          138,
          139,
          140,
          141,
          142,
          143,
          144,
          145,
          146,
          147,
          148,
          149,
          150
        ],
        "AcquisitionTime": [
          "095058.720000",
          "095101.330000",
          "095103.942500",
          "095106.552500",
          "095109.162500",
          "095111.772500",
          "095114.382500",
          "095116.992500",
          "095119.605000",
          "095122.215000",
          "095124.825000",
          "095127.435000",
          "095130.045000",
          "095132.655000",
          "095135.267500",
          "095137.877500",
          "095140.487500",
          "095143.097500",
          "095145.707500",
          "095148.320000",
          "095150.930000",
          "095153.540000",
          "095156.150000",
          "095158.760000",
          "095201.370000",
          "095203.982500",
          "095206.592500",
          "095209.202500",
          "095211.812500",
          "095214.422500",
          "095217.032500",
          "095219.645000",
          "095222.255000",
          "095224.865000",
          "095227.475000",
          "095230.085000",
          "095232.697500",
          "095235.307500",
          "095237.917500",
          "095240.527500",
          "095243.137500",
          "095245.747500",
          "095248.360000",
          "095250.970000",
          "095253.580000",
          "095256.190000",
          "095258.800000",
          "095301.410000",
          "095304.022500",
          "095306.632500",
          "095309.242500",
          "095311.852500",
          "095314.462500",
          "095317.075000",
          "095319.685000",
          "095322.295000",
          "095324.905000",
          "095327.515000",
          "095330.125000",
          "095332.737500",
          "095335.347500",
          "095337.957500",
          "095340.567500",
          "095343.177500",
          "095345.787500",
          "095348.400000",
          "095351.010000",
          "095353.620000",
          "095356.230000",
          "095358.840000",
          "095401.452500",
          "095404.062500",
          "095406.672500",
          "095409.282500",
          "095411.892500",
          "095414.502500",
          "095417.115000",
          "095419.725000",
          "095422.335000",
          "095424.945000",
          "095427.555000",
          "095430.165000",
          "095432.777500",
          "095435.387500",
          "095437.997500",
          "095440.607500",
          "095443.217500",
          "095445.830000",
          "095448.440000",
          "095451.050000",
          "095453.660000",
          "095456.270000",
          "095458.880000",
          "095501.492500",
          "095504.102500",
          "095506.712500",
          "095509.322500",
          "095511.932500",
          "095514.545000",
          "095517.155000",
          "095519.765000",
          "095522.375000",
          "095524.985000",
          "095527.595000",
          "095530.207500",
          "095532.817500",
          "095535.427500",
          "095538.037500",
          "095540.647500",
          "095543.257500",
          "095545.870000",
          "095548.480000",
          "095551.090000",
          "095553.700000",
          "095556.310000",
          "095558.922500",
          "095601.532500",
          "095604.142500",
          "095606.752500",
          "095609.362500",
          "095611.972500",
          "095614.585000",
          "095617.195000",
          "095619.805000",
          "095622.415000",
          "095625.025000",
          "095627.635000",
          "095630.247500",
          "095632.857500",
          "095635.467500",
          "095638.077500",
          "095640.687500",
          "095643.300000",
          "095645.910000",
          "095648.520000",
          "095651.130000",
          "095653.740000",
          "095656.350000",
          "095658.962500",
          "095701.572500",
          "095704.182500",
          "095706.792500",
          "095709.402500",
          "095712.012500",
          "095714.625000",
          "095717.235000",
          "095719.845000",
          "095722.455000",
          "095725.065000",
          "095727.677500"
        ],
        "ContentTime": [
          "095107.515000",
          "095107.515000",
          "095108.515000",
          "095110.515000",
          "095113.015000",
          "095115.515000",
          "095118.515000",
          "095121.015000",
          "095123.515000",
          "095126.015000",
          "095128.515000",
          "095131.515000",
          "095134.015000",
          "095136.515000",
          "095139.015000",
          "095141.515000",
          "095144.515000",
          "095147.015000",
          "095149.515000",
          "095152.015000",
          "095155.015000",
          "095157.515000",
          "095200.015000",
          "095202.515000",
          "095205.015000",
          "095208.015000",
          "095210.515000",
          "095213.015000",
          "095215.515000",
          "095218.015000",
          "095220.515000",
          "095223.515000",
          "095226.015000",
          "095228.515000",
          "095231.015000",
          "095233.515000",
          "095236.515000",
          "095239.015000",
          "095241.515000",
          "095244.015000",
          "095246.515000",
          "095249.515000",
          "095252.015000",
          "095254.515000",
          "095257.015000",
          "095300.015000",
          "095302.515000",
          "095305.015000",
          "095307.531000",
          "095310.015000",
          "095313.015000",
          "095315.515000",
          "095318.015000",
          "095320.515000",
          "095323.015000",
          "095325.515000",
          "095328.515000",
          "095331.015000",
          "095333.515000",
          "095336.015000",
          "095338.515000",
          "095341.515000",
          "095344.015000",
          "095346.515000",
          "095349.015000",
          "095352.015000",
          "095354.515000",
          "095357.015000",
          "095359.515000",
          "095402.015000",
          "095404.515000",
          "095407.515000",
          "095410.015000",
          "095412.515000",
          "095415.015000",
          "095418.015000",
          "095420.515000",
          "095423.015000",
          "095425.515000",
          "095428.015000",
          "095431.015000",
          "095433.515000",
          "095436.015000",
          "095438.515000",
          "095441.015000",
          "095444.015000",
          "095446.515000",
          "095449.015000",
          "095451.515000",
          "095454.015000",
          "095456.515000",
          "095459.515000",
          "095502.015000",
          "095504.515000",
          "095507.015000",
          "095510.015000",
          "095512.515000",
          "095515.015000",
          "095517.515000",
          "095520.015000",
          "095522.515000",
          "095525.515000",
          "095528.015000",
          "095530.515000",
          "095533.015000",
          "095536.015000",
          "095538.515000",
          "095541.015000",
          "095543.515000",
          "095546.015000",
          "095549.015000",
          "095551.515000",
          "095554.015000",
          "095556.515000",
          "095559.015000",
          "095601.515000",
          "095604.515000",
          "095607.015000",
          "095609.515000",
          "095612.015000",
          "095614.515000",
          "095617.515000",
          "095620.015000",
          "095622.515000",
          "095625.015000",
          "095627.515000",
          "095630.515000",
          "095633.015000",
          "095635.515000",
          "095638.015000",
          "095640.515000",
          "095643.515000",
          "095646.015000",
          "095648.515000",
          "095651.015000",
          "095653.515000",
          "095656.515000",
          "095659.015000",
          "095701.515000",
          "095704.015000",
          "095706.515000",
          "095709.515000",
          "095712.015000",
          "095714.515000",
          "095717.015000",
          "095719.515000",
          "095722.515000",
          "095725.015000",
          "095727.515000",
          "095734.875000"
        ],
        "InstanceCreationTime": [
          "095107.515000",
          "095107.515000",
          "095108.515000",
          "095110.515000",
          "095113.015000",
          "095115.515000",
          "095118.515000",
          "095121.015000",
          "095123.515000",
          "095126.015000",
          "095128.515000",
          "095131.515000",
          "095134.015000",
          "095136.515000",
          "095139.015000",
          "095141.515000",
          "095144.515000",
          "095147.015000",
          "095149.515000",
          "095152.015000",
          "095155.015000",
          "095157.515000",
          "095200.015000",
          "095202.515000",
          "095205.015000",
          "095208.015000",
          "095210.515000",
          "095213.015000",
          "095215.515000",
          "095218.015000",
          "095220.515000",
          "095223.515000",
          "095226.015000",
          "095228.515000",
          "095231.015000",
          "095233.515000",
          "095236.515000",
          "095239.015000",
          "095241.515000",
          "095244.015000",
          "095246.515000",
          "095249.515000",
          "095252.015000",
          "095254.515000",
          "095257.015000",
          "095300.015000",
          "095302.515000",
          "095305.015000",
          "095307.531000",
          "095310.015000",
          "095313.015000",
          "095315.515000",
          "095318.015000",
          "095320.515000",
          "095323.015000",
          "095325.515000",
          "095328.515000",
          "095331.015000",
          "095333.515000",
          "095336.015000",
          "095338.515000",
          "095341.515000",
          "095344.015000",
          "095346.515000",
          "095349.015000",
          "095352.015000",
          "095354.515000",
          "095357.015000",
          "095359.515000",
          "095402.015000",
          "095404.515000",
          "095407.515000",
          "095410.015000",
          "095412.515000",
          "095415.015000",
          "095418.015000",
          "095420.515000",
          "095423.015000",
          "095425.515000",
          "095428.015000",
          "095431.015000",
          "095433.515000",
          "095436.015000",
          "095438.515000",
          "095441.015000",
          "095444.015000",
          "095446.515000",
          "095449.015000",
          "095451.515000",
          "095454.015000",
          "095456.515000",
          "095459.515000",
          "095502.015000",
          "095504.515000",
          "095507.015000",
          "095510.015000",
          "095512.515000",
          "095515.015000",
          "095517.515000",
          "095520.015000",
          "095522.515000",
          "095525.515000",
          "095528.015000",
          "095530.515000",
          "095533.015000",
          "095536.015000",
          "095538.515000",
          "095541.015000",
          "095543.515000",
          "095546.015000",
          "095549.015000",
          "095551.515000",
          "095554.015000",
          "095556.515000",
          "095559.015000",
          "095601.515000",
          "095604.515000",
          "095607.015000",
          "095609.515000",
          "095612.015000",
          "095614.515000",
          "095617.515000",
          "095620.015000",
          "095622.515000",
          "095625.015000",
          "095627.515000",
          "095630.515000",
          "095633.015000",
          "095635.515000",
          "095638.015000",
          "095640.515000",
          "095643.515000",
          "095646.015000",
          "095648.515000",
          "095651.015000",
          "095653.515000",
          "095656.515000",
          "095659.015000",
          "095701.515000",
          "095704.015000",
          "095706.515000",
          "095709.515000",
          "095712.015000",
          "095714.515000",
          "095717.015000",
          "095719.515000",
          "095722.515000",
          "095725.015000",
          "095727.515000",
          "095734.875000"
        ],
        "InstanceNumber": [
          1,
          2,
          3,
          4,
          5,
          6,
          7,
          8,
          9,
          10,
          11,
          12,
          13,
          14,
          15,
          16,
          17,
          18,
          19,
          20,
          21,
          22,
          23,
          24,
          25,
          26,
          27,
          28,
          29,
          30,
          31,
          32,
          33,
          34,
          35,
          36,
          37,
          38,
          39,
          40,
          41,
          42,
          43,
          44,
          45,
          46,
          47,
          48,
          49,
          50,
          51,
          52,
          53,
          54,
          55,
          56,
          57,
          58,
          59,
          60,
          61,
          62,
          63,
          64,
          65,
          66,
          67,
          68,
          69,
          70,
          71,
          72,
          73,
          74,
          75,
          76,
          77,
          78,
          79,
          80,
          81,
          82,
          83,
          84,
          85,
          86,
          87,
          88,
          89,
          90,
          91,
          92,
          93,
          94,
          95,
          96,
          97,
          98,
          99,
          100,
          101,
          102,
          103,
          104,
          105,
          106,
          107,
          108,
          109,
          110,
          111,
          112,
          113,
          114,
          115,
          116,
          117,
          118,
          119,
          120,
          121,
          122,
          123,
          124,
          125,
          126,
          127,
          128,
          129,
          130,
          131,
          132,
          133,
          134,
          135,
          136,
          137,
          138,
          139,
          140,
          141,
          142,
          143,
          144,
          145,
          146,
          147,
          148,
          149,
          150
        ],
        "WindowCenter": [
          822.0,
          821.0,
          822.0,
          821.0,
          820.0,
          820.0,
          822.0,
          822.0,
          821.0,
          821.0,
          821.0,
          822.0,
          822.0,
          822.0,
          823.0,
          823.0,
          824.0,
          822.0,
          822.0,
          823.0,
          823.0,
          821.0,
          821.0,
          820.0,
          821.0,
          821.0,
          821.0,
          822.0,
          824.0,
          823.0,
          823.0,
          823.0,
          822.0,
          821.0,
          823.0,
          825.0,
          822.0,
          820.0,
          820.0,
          820.0,
          821.0,
          823.0,
          822.0,
          821.0,
          821.0,
          822.0,
          821.0,
          820.0,
          821.0,
          822.0,
          823.0,
          822.0,
          821.0,
          821.0,
          821.0,
          820.0,
          820.0,
          821.0,
          821.0,
          820.0,
          819.0,
          820.0,
          823.0,
          824.0,
          822.0,
          821.0,
          822.0,
          822.0,
          821.0,
          820.0,
          820.0,
          820.0,
          819.0,
          820.0,
          821.0,
          822.0,
          823.0,
          823.0,
          823.0,
          823.0,
          822.0,
          821.0,
          821.0,
          821.0,
          821.0,
          820.0,
          820.0,
          822.0,
          824.0,
          825.0,
          824.0,
          822.0,
          821.0,
          821.0,
          823.0,
          824.0,
          822.0,
          822.0,
          823.0,
          823.0,
          826.0,
          827.0,
          825.0,
          821.0,
          819.0,
          818.0,
          819.0,
          821.0,
          821.0,
          821.0,
          820.0,
          820.0,
          822.0,
          823.0,
          821.0,
          821.0,
          821.0,
          822.0,
          824.0,
          825.0,
          822.0,
          821.0,
          821.0,
          822.0,
          822.0,
          822.0,
          823.0,
          822.0,
          821.0,
          820.0,
          820.0,
          820.0,
          820.0,
          820.0,
          821.0,
          821.0,
          820.0,
          820.0,
          820.0,
          822.0,
          823.0,
          822.0,
          823.0,
          823.0,
          824.0,
          823.0,
          823.0,
          824.0,
          822.0,
          822.0
        ],
        "WindowWidth": [
          1817.0,
          1815.0,
          1817.0,
          1815.0,
          1812.0,
          1813.0,
          1819.0,
          1819.0,
          1815.0,
          1814.0,
          1816.0,
          1818.0,
          1818.0,
          1817.0,
          1821.0,
          1821.0,
          1824.0,
          1818.0,
          1818.0,
          1822.0,
          1821.0,
          1815.0,
          1815.0,
          1813.0,
          1815.0,
          1816.0,
          1816.0,
          1819.0,
          1824.0,
          1822.0,
          1822.0,
          1822.0,
          1818.0,
          1817.0,
          1824.0,
          1828.0,
          1820.0,
          1813.0,
          1812.0,
          1814.0,
          1817.0,
          1821.0,
          1819.0,
          1815.0,
          1817.0,
          1819.0,
          1816.0,
          1814.0,
          1816.0,
          1821.0,
          1823.0,
          1818.0,
          1817.0,
          1817.0,
          1815.0,
          1813.0,
          1813.0,
          1817.0,
          1817.0,
          1814.0,
          1811.0,
          1813.0,
          1823.0,
          1826.0,
          1820.0,
          1817.0,
          1818.0,
          1819.0,
          1815.0,
          1812.0,
          1813.0,
          1812.0,
          1811.0,
          1813.0,
          1816.0,
          1819.0,
          1823.0,
          1821.0,
          1821.0,
          1821.0,
          1819.0,
          1816.0,
          1816.0,
          1817.0,
          1817.0,
          1814.0,
          1814.0,
          1819.0,
          1825.0,
          1829.0,
          1826.0,
          1818.0,
          1816.0,
          1816.0,
          1822.0,
          1824.0,
          1819.0,
          1820.0,
          1824.0,
          1823.0,
          1830.0,
          1835.0,
          1827.0,
          1816.0,
          1809.0,
          1807.0,
          1810.0,
          1817.0,
          1816.0,
          1815.0,
          1813.0,
          1814.0,
          1820.0,
          1824.0,
          1817.0,
          1816.0,
          1817.0,
          1818.0,
          1825.0,
          1827.0,
          1819.0,
          1816.0,
          1816.0,
          1818.0,
          1819.0,
          1818.0,
          1822.0,
          1820.0,
          1817.0,
          1813.0,
          1812.0,
          1814.0,
          1812.0,
          1811.0,
          1816.0,
          1816.0,
          1814.0,
          1813.0,
          1812.0,
          1818.0,
          1821.0,
          1819.0,
          1821.0,
          1820.0,
          1824.0,
          1820.0,
          1820.0,
          1823.0,
          1818.0,
          1819.0
        ]
      },
      "slices": {}
    }
  },
  "dummy_trs": 0,
  "dvars_nstd": 76.10022551261738,
  "dvars_std": 1.0220334187248317,
  "dvars_vstd": 0.9925799845637583,
  "efc": 0.5879963582424531,
  "fber": 226.17356872558594,
  "fd_mean": 0.0720963393395129,
  "fd_num": 1,
  "fd_perc": 0.6666666666666666,
  "fwhm_avg": 2.8944481415856553,
  "fwhm_x": 2.618922020741809,
  "fwhm_y": 2.8771847278299845,
  "fwhm_z": 3.187237676185171,
  "gcor": 0.0020952,
  "gsr_x": -0.017273947596549988,
  "gsr_y": 0.07595162838697433,
  "provenance": {
    "md5sum": "7e4b58c9b8f3f2ea4af1f1c945d05477",
    "settings": {
      "fd_thres": 0.2,
      "testing": false
    },
    "software": "mriqc",
    "version": "23.0.1",
    "webapi_port": null,
    "webapi_url": "https://mriqc.nimh.nih.gov/api/v1"
  },
  "size_t": 150,
  "size_x": 188,
  "size_y": 188,
  "size_z": 46,
  "snr": 2.1289549628822004,
  "spacing_tr": 2.5999999046325684,
  "spacing_x": 1.0957447290420532,
  "spacing_y": 1.0957447290420532,
  "spacing_z": 1.0999995470046997,
  "summary_bg_k": 31.629292212533358,
  "summary_bg_mad": 32.17246927270729,
  "summary_bg_mean": 95.10328674316406,
  "summary_bg_median": 53.266666412353516,
  "summary_bg_n": 1036350.0,
  "summary_bg_p05": 27.96666717529297,
  "summary_bg_p95": 301.18366851806593,
