{
  "aor": 0.0005336574074074074,
  "aqi": 0.01140875074074074,
  "bids_meta": {
    "AcquisitionMatrixPE": 188,
    "AcquisitionNumber": 1,
    "AcquisitionTime": "19:28:11.255000",
    "BandwidthPerPixelPhaseEncode": 19.46,
    "BaseResolution": 188,
    "ConversionSoftware": "dcm2niix",
    "ConversionSoftwareVersion": "v1.0.20180606 GCC4.8.5",
    "DelayTime": 1.2,
    "DerivedVendorReportedEchoSpacing": 0.000820013,
    "DeviceSerialNumber": "18930",
    "DwellTime": 1.9e-06,
    "EchoTime": 0.02,
    "EffectiveEchoSpacing": 0.000273338,
    "FlipAngle": 80,
    "ImageComments": "Unaliased_MB2_PE2",
    "ImageOrientationPatientDICOM": [
      0.998487,
      0.0489497,
      -0.0250718,
      -0.0348181,
      0.209744,
      -0.977136
    ],
    "ImageType": [
      "ORIGINAL",
      "PRIMARY",
      "M",
      "MB",
      "ND",
      "MOSAIC"
    ],
    "InPlanePhaseEncodingDirectionDICOM": "COL",
    "InstitutionAddress": "Oxfordlaan_55_Maastricht_Limburg_NL_6229_EV",
    "InstitutionName": "Scannexus",
    "InstitutionalDepartmentName": "MRI_7T",
    "MRAcquisitionType": "2D",
    "MagneticFieldStrength": 6.98,
    "Manufacturer": "Siemens",
    "ManufacturersModelName": "Investigational_Device_7T",
    "Modality": "MR",
    "MultibandAccelerationFactor": 2,
    "ParallelReductionFactorInPlane": 3,
    "PartialFourier": 0.75,
    "PatientPosition": "HFS",
    "PercentPhaseFOV": 100,
    "PhaseEncodingDirection": "j",
    "PhaseEncodingSteps": 141,
    "PhaseResolution": 1,
    "PixelBandwidth": 1400,
    "ProcedureStepDescription": "FeDem_fMRI",
    "ProtocolName": "cmrr_mbep2d_bold_AP_run7",
    "PulseSequenceDetails": "%CustomerSeq%_cmrr_mbep2d_bold",
    "ReceiveCoilName": "32Ch_Head_7T",
    "ReconMatrixPE": 188,
    "RepetitionTime": 2.6,
    "SAR": 0.0949726,
    "ScanOptions": "PFP_FS",
    "ScanningSequence": "EP",
    "SequenceName": "epfid2d1_188",
    "SequenceVariant": "SK_SS",
    "SeriesDescription": "cmrr_mbep2d_bold_AP_run7",
    "SeriesNumber": 16,
    "ShimSetting": [
      83,
      -18,
      483,
      568,
      -170,
      372,
      397,
      176
    ],
    "SliceThickness": 1.1,
    "SliceTiming": [
      0,
      0.735,
      0.0625,
      0.795,
      0.1225,
      0.8575,
      0.185,
      0.9175,
      0.245,
      0.98,
      0.3075,
      1.04,
      0.3675,
      1.1,
      0.43,
      1.1625,
      0.49,
      1.2225,
      0.55,
      1.285,
      0.6125,
      1.345,
      0.6725,
      0,
      0.735,
      0.0625,
      0.795,
      0.1225,
      0.8575,
      0.185,
      0.9175,
      0.245,
      0.98,
      0.3075,
      1.04,
      0.3675,
      1.1,
      0.43,
      1.1625,
      0.49,
      1.2225,
      0.55,
      1.285,
      0.6125,
      1.345,
      0.6725
    ],
    "SoftwareVersions": "syngo_MR_B17",
    "SpacingBetweenSlices": 1.1,
    "StationName": "MRC18930",
    "TaskName": "auditory",
    "TotalReadoutTime": 0.0511141,
    "TxRefAmp": 250,
    "dataset": "ds001942",
    "dcmmeta_affine": [
      [
        -1.0940862894058228,
        -0.03815179318189621,
        0.046828996390104294,
        101.74381256103516
      ],
      [
        -0.053636323660612106,
        0.22982586920261383,
        -1.0741831064224243,
        28.606107711791992
      ],
      [
        -0.027472274377942085,
        1.0706918239593506,
        0.23224392533302307,
        -113.16610717773438
      ],
      [
        0.0,
        0.0,
        0.0,
        1.0
      ]
    ],
    "dcmmeta_reorient_transform": [
      [
        0.0,
        -1.0,
        0.0,
        187.0
      ],
      [
        1.0,
        0.0,
        0.0,
        0.0
      ],
      [
        0.0,
        0.0,
        1.0,
        0.0
      ],
      [
        0.0,
        0.0,
        0.0,
        1.0
      ]
    ],
    "dcmmeta_shape": [
      188,
      188,
      46,
      216
    ],
    "dcmmeta_slice_dim": 2,
    "dcmmeta_version": 0.6,
    "global": {
      "const": {
        "AcquisitionMatrix": [
          188,
          0,
          0,
          188
        ],
        "AngioFlag": "N",
        "BitsAllocated": 16,
        "BitsStored": 12,
        "Columns": 1316,
        "EchoNumbers": 1,
        "EchoTime": 20.0,
        "EchoTrainLength": 1,
        "FlipAngle": 80.0,
        "HighBit": 11,
        "ImageOrientationPatient": [
          0.99848652333588,
          0.04894965136422,
          -0.0250717839005,
          -0.0348181392958,
          0.20974398973716,
          -0.9771362013277
        ],
        "ImagePositionPatient": [
          -690.15651702401,
          -231.45622234465,
          706.41783103294
        ],
        "ImageType": [
          "ORIGINAL",
          "PRIMARY",
          "M",
          "MB",
          "ND",
          "MOSAIC"
        ],
        "ImagedNucleus": "1H",
        "ImagingFrequency": 297.2056,
        "InPlanePhaseEncodingDirection": "COL",
        "LargestImagePixelValue": 4095,
        "MRAcquisitionType": "2D",
        "MagneticFieldStrength": 6.98,
        "Manufacturer": "SIEMENS",
        "ManufacturerModelName": "Investigational_Device_7T",
        "Modality": "MR",
        "NumberOfAverages": 1.0,
        "NumberOfPhaseEncodingSteps": 141,
        "PercentPhaseFieldOfView": 100.0,
        "PercentSampling": 100.0,
        "PerformedProcedureStepStartTime": "175244.656000",
        "PhotometricInterpretation": "MONOCHROME2",
        "PixelBandwidth": 1400.0,
        "PixelRepresentation": 0,
        "PixelSpacing": [
          1.0957447290421,
          1.0957447290421
        ],
        "ProtocolName": "cmrr_mbep2d_bold_AP_run7",
        "RepetitionTime": 2600.0,
        "Rows": 1316,
        "SAR": 0.0949726076688,
        "SamplesPerPixel": 1,
        "ScanOptions": [
          "PFP",
          "FS"
        ],
        "ScanningSequence": "EP",
        "SequenceName": "epfid2d1_188",
        "SequenceVariant": [
          "SK",
          "SS"
        ],
        "SeriesDescription": "cmrr_mbep2d_bold_AP_run7",
        "SeriesNumber": 16,
        "SeriesTime": "192914.890000",
        "SliceLocation": -47.496170282791,
        "SliceThickness": 1.1000000238419,
        "SmallestImagePixelValue": 0,
        "SoftwareVersions": "syngo MR B17",
        "SpacingBetweenSlices": 1.0999998170913,
        "SpecificCharacterSet": "ISO_IR 100",
        "StudyID": "1",
        "StudyTime": "175244.609000",
        "TransmitCoilName": "32Ch_Head_7T",
        "VariableFlipAngleFlag": "N",
        "WindowCenterWidthExplanation": "Algo1",
        "dBdt": 0.0
      },
      "slices": {}
    },
    "modality": "bold",
    "run_id": 7,
    "session_id": "SES05",
    "subject_id": "S09",
    "task_id": "auditory",
    "time": {
      "samples": {
        "AcquisitionNumber": [
          1,
          2,
          3,
          4,
          5,
          6,
          7,
          8,
          9,
          10,
          11,
          12,
          13,
          14,
          15,
          16,
          17,
          18,
          19,
          20,
          21,
          22,
          23,
          24,
          25,
          26,
          27,
          28,
          29,
          30,
          31,
          32,
          33,
          34,
          35,
          36,
          37,
          38,
          39,
          40,
          41,
          42,
          43,
          44,
          45,
          46,
          47,
          48,
          49,
          50,
          51,
          52,
          53,
          54,
          55,
          56,
          57,
          58,
          59,
          60,
          61,
          62,
          63,
          64,
          65,
          66,
          67,
          68,
          69,
          70,
          71,
          72,
          73,
          74,
          75,
          76,
          77,
          78,
          79,
          80,
          81,
          82,
          83,
          84,
          85,
          86,
          87,
          88,
          89,
          90,
          91,
          92,
          93,
          94,
          95,
          96,
          97,
          98,
          99,
          100,
          101,
          102,
          103,
          104,
          105,
          106,
          107,
          108,
          109,
          110,
          111,
          112,
          113,
          114,
          115,
          116,
          117,
          118,
          119,
          120,
          121,
          122,
          123,
          124,
          125,
          126,
          127,
          128,
          129,
          130,
          131,
          132,
          133,
          134,
          135,
          136,
          137,
          138,
          139,
          140,
          141,
          142,
          143,
          144,
          145,
          146,
          147,
          148,
          149,
          150,
          151,
          152,
          153,
          154,
          155,
          156,
          157,
          158,
          159,
          160,
          161,
          162,
          163,
          164,
          165,
          166,
          167,
          168,
          169,
          170,
          171,
          172,
          173,
          174,
          175,
          176,
          177,
          178,
          179,
          180,
          181,
          182,
          183,
          184,
          185,
          186,
          187,
          188,
          189,
          190,
          191,
          192,
          193,
          194,
          195,
          196,
          197,
          198,
          199,
          200,
          201,
          202,
          203,
          204,
          205,
          206,
          207,
          208,
          209,
          210,
          211,
          212,
          213,
          214,
          215,
          216
        ],
        "AcquisitionTime": [
          "192811.255000",
          "192813.867500",
          "192816.477500",
          "192819.087500",
          "192821.697500",
          "192824.307500",
          "192826.920000",
          "192829.530000",
          "192832.140000",
          "192834.750000",
          "192837.360000",
          "192839.970000",
          "192842.582500",
          "192845.192500",
          "192847.802500",
          "192850.412500",
          "192853.022500",
          "192855.632500",
          "192858.245000",
          "192900.855000",
          "192903.465000",
          "192906.075000",
          "192908.685000",
          "192911.297500",
          "192913.907500",
          "192916.517500",
          "192919.127500",
          "192921.737500",
          "192924.347500",
          "192926.960000",
          "192929.570000",
          "192932.180000",
          "192934.790000",
          "192937.400000",
          "192940.010000",
          "192942.622500",
          "192945.232500",
          "192947.842500",
          "192950.452500",
          "192953.062500",
          "192955.675000",
          "192958.285000",
          "193000.895000",
          "193003.505000",
          "193006.115000",
          "193008.725000",
          "193011.337500",
          "193013.947500",
          "193016.557500",
          "193019.167500",
          "193021.777500",
          "193024.387500",
          "193027.000000",
          "193029.610000",
          "193032.220000",
          "193034.830000",
          "193037.440000",
          "193040.052500",
          "193042.662500",
          "193045.272500",
          "193047.882500",
          "193050.492500",
          "193053.102500",
          "193055.715000",
          "193058.325000",
          "193100.935000",
          "193103.545000",
          "193106.155000",
          "193108.765000",
          "193111.377500",
          "193113.987500",
          "193116.597500",
          "193119.207500",
          "193121.817500",
          "193124.430000",
          "193127.040000",
          "193129.650000",
          "193132.260000",
          "193134.870000",
          "193137.480000",
          "193140.092500",
          "193142.702500",
          "193145.312500",
          "193147.922500",
          "193150.532500",
          "193153.142500",
          "193155.755000",
          "193158.365000",
          "193200.975000",
          "193203.585000",
          "193206.195000",
          "193208.807500",
          "193211.417500",
          "193214.027500",
          "193216.637500",
          "193219.247500",
          "193221.857500",
          "193224.470000",
          "193227.080000",
          "193229.690000",
          "193232.300000",
          "193234.910000",
          "193237.522500",
          "193240.132500",
          "193242.742500",
          "193245.352500",
          "193247.962500",
          "193250.572500",
          "193253.185000",
          "193255.795000",
          "193258.405000",
          "193301.015000",
          "193303.625000",
          "193306.235000",
          "193308.847500",
          "193311.457500",
          "193314.067500",
          "193316.677500",
          "193319.287500",
          "193321.900000",
          "193324.510000",
          "193327.120000",
          "193329.730000",
          "193332.340000",
          "193334.950000",
          "193337.562500",
          "193340.172500",
          "193342.782500",
          "193345.392500",
          "193348.002500",
          "193350.612500",
          "193353.225000",
          "193355.835000",
          "193358.445000",
          "193401.055000",
          "193403.665000",
          "193406.277500",
          "193408.887500",
          "193411.497500",
          "193414.107500",
          "193416.717500",
          "193419.327500",
          "193421.940000",
          "193424.550000",
          "193427.160000",
          "193429.770000",
          "193432.380000",
          "193434.990000",
          "193437.602500",
          "193440.212500",
          "193442.822500",
          "193445.432500",
          "193448.042500",
          "193450.655000",
          "193453.265000",
          "193455.875000",
          "193458.485000",
          "193501.095000",
          "193503.705000",
          "193506.317500",
          "193508.927500",
          "193511.537500",
          "193514.147500",
          "193516.757500",
          "193519.367500",
          "193521.980000",
          "193524.590000",
          "193527.200000",
          "193529.810000",
          "193532.420000",
          "193535.032500",
          "193537.642500",
          "193540.252500",
          "193542.862500",
          "193545.472500",
          "193548.082500",
          "193550.695000",
          "193553.305000",
          "193555.915000",
          "193558.525000",
          "193601.135000",
          "193603.745000",
          "193606.357500",
          "193608.967500",
          "193611.577500",
          "193614.187500",
          "193616.797500",
          "193619.410000",
          "193622.020000",
          "193624.630000",
          "193627.240000",
          "193629.850000",
          "193632.460000",
          "193635.072500",
          "193637.682500",
          "193640.292500",
          "193642.902500",
          "193645.512500",
          "193648.122500",
          "193650.735000",
          "193653.345000",
          "193655.955000",
          "193658.565000",
          "193701.175000",
          "193703.787500",
          "193706.397500",
          "193709.007500",
          "193711.617500",
          "193714.227500",
          "193716.837500",
          "193719.450000",
          "193722.060000",
          "193724.670000",
          "193727.280000",
          "193729.890000",
          "193732.500000"
        ],
        "ContentTime": [
          "192914.890000",
          "192914.906000",
          "192914.906000",
          "192914.906000",
          "192914.906000",
          "192914.921000",
          "192914.921000",
          "192914.921000",
          "192914.921000",
          "192914.921000",
          "192914.921000",
          "192914.921000",
          "192914.937000",
          "192914.937000",
          "192914.937000",
          "192914.937000",
          "192914.937000",
          "192914.937000",
          "192914.937000",
          "192914.937000",
          "192914.953000",
          "192914.953000",
          "192914.953000",
          "193014.890000",
          "193014.890000",
          "193014.890000",
          "193014.890000",
          "193014.906000",
          "193014.906000",
          "193014.906000",
          "193014.906000",
          "193014.906000",
          "193014.906000",
          "193014.921000",
          "193014.921000",
          "193014.921000",
          "193014.921000",
          "193014.921000",
          "193014.921000",
          "193014.921000",
          "193014.921000",
          "193014.937000",
          "193014.937000",
          "193014.937000",
          "193014.937000",
          "193014.937000",
          "193114.890000",
          "193114.890000",
          "193114.890000",
          "193114.890000",
          "193114.906000",
          "193114.906000",
          "193114.906000",
          "193114.906000",
          "193114.906000",
          "193114.906000",
          "193114.906000",
          "193114.906000",
          "193114.921000",
          "193114.921000",
          "193114.921000",
          "193114.921000",
          "193114.921000",
          "193114.921000",
          "193114.921000",
          "193114.937000",
          "193114.937000",
          "193114.937000",
          "193114.937000",
          "193214.890000",
          "193214.890000",
          "193214.890000",
          "193214.890000",
          "193214.906000",
          "193214.906000",
          "193214.906000",
          "193214.906000",
          "193214.921000",
          "193214.921000",
          "193214.921000",
          "193214.921000",
          "193214.921000",
          "193214.921000",
          "193214.937000",
          "193214.937000",
          "193214.937000",
          "193214.937000",
          "193214.953000",
          "193214.953000",
          "193214.953000",
          "193214.953000",
          "193214.953000",
          "193314.890000",
          "193314.906000",
          "193314.906000",
          "193314.906000",
          "193314.906000",
          "193314.906000",
          "193314.906000",
          "193314.906000",
          "193314.921000",
          "193314.921000",
          "193314.921000",
          "193314.921000",
          "193314.921000",
          "193314.921000",
          "193314.921000",
          "193314.921000",
          "193314.937000",
          "193314.937000",
          "193314.937000",
          "193314.937000",
          "193314.937000",
          "193314.937000",
          "193314.937000",
          "193354.890000",
          "193354.906000",
          "193354.906000",
          "193354.906000",
          "193354.906000",
          "193354.906000",
          "193354.906000",
          "193354.906000",
          "193354.921000",
          "193354.921000",
          "193354.921000",
          "193354.921000",
          "193354.921000",
          "193354.921000",
          "193354.921000",
          "193354.921000",
          "193454.890000",
          "193454.890000",
          "193454.906000",
          "193454.906000",
          "193454.906000",
          "193454.906000",
          "193454.906000",
          "193454.906000",
          "193454.921000",
          "193454.921000",
          "193454.921000",
          "193454.921000",
          "193454.921000",
          "193454.921000",
          "193454.937000",
          "193454.937000",
          "193454.937000",
          "193454.937000",
          "193454.937000",
          "193454.937000",
          "193454.937000",
          "193454.937000",
          "193454.953000",
          "193554.890000",
          "193554.890000",
          "193554.890000",
          "193554.890000",
          "193554.906000",
          "193554.906000",
          "193554.906000",
          "193554.906000",
          "193554.906000",
          "193554.906000",
          "193554.906000",
          "193554.921000",
          "193554.921000",
          "193554.921000",
          "193554.921000",
          "193554.921000",
          "193554.921000",
          "193554.937000",
          "193554.937000",
          "193554.937000",
          "193554.937000",
          "193554.937000",
          "193554.937000",
          "193654.890000",
          "193654.890000",
          "193654.890000",
          "193654.890000",
          "193654.906000",
          "193654.906000",
          "193654.906000",
          "193654.906000",
          "193654.906000",
          "193654.906000",
          "193654.906000",
          "193654.906000",
          "193654.921000",
          "193654.921000",
          "193654.921000",
          "193654.921000",
          "193654.921000",
          "193654.937000",
          "193654.937000",
          "193654.937000",
          "193654.937000",
          "193654.937000",
          "193654.937000",
          "193739.968000",
          "193739.968000",
          "193739.968000",
          "193739.968000",
          "193739.968000",
          "193739.968000",
          "193739.968000",
          "193739.984000",
          "193739.984000",
          "193739.984000",
          "193739.984000",
          "193739.984000",
          "193739.984000",
          "193739.984000",
          "193740.000000",
          "193740.000000"
        ],
        "InstanceCreationTime": [
          "192914.890000",
          "192914.906000",
          "192914.906000",
          "192914.906000",
          "192914.906000",
          "192914.921000",
          "192914.921000",
          "192914.921000",
          "192914.921000",
          "192914.921000",
          "192914.921000",
          "192914.921000",
          "192914.937000",
          "192914.937000",
          "192914.937000",
          "192914.937000",
          "192914.937000",
          "192914.937000",
          "192914.937000",
          "192914.937000",
          "192914.953000",
          "192914.953000",
          "192914.953000",
          "193014.890000",
          "193014.890000",
          "193014.890000",
          "193014.890000",
          "193014.906000",
          "193014.906000",
          "193014.906000",
          "193014.906000",
          "193014.906000",
          "193014.906000",
          "193014.921000",
          "193014.921000",
          "193014.921000",
          "193014.921000",
          "193014.921000",
          "193014.921000",
          "193014.921000",
          "193014.921000",
          "193014.937000",
          "193014.937000",
          "193014.937000",
          "193014.937000",
          "193014.937000",
          "193114.890000",
          "193114.890000",
          "193114.890000",
          "193114.890000",
          "193114.906000",
          "193114.906000",
          "193114.906000",
          "193114.906000",
          "193114.906000",
          "193114.906000",
          "193114.906000",
          "193114.906000",
          "193114.921000",
          "193114.921000",
          "193114.921000",
          "193114.921000",
          "193114.921000",
          "193114.921000",
          "193114.921000",
          "193114.937000",
          "193114.937000",
          "193114.937000",
          "193114.937000",
          "193214.890000",
          "193214.890000",
          "193214.890000",
          "193214.890000",
          "193214.906000",
          "193214.906000",
          "193214.906000",
          "193214.906000",
          "193214.921000",
          "193214.921000",
          "193214.921000",
          "193214.921000",
          "193214.921000",
          "193214.921000",
          "193214.937000",
          "193214.937000",
          "193214.937000",
          "193214.937000",
          "193214.953000",
          "193214.953000",
          "193214.953000",
          "193214.953000",
          "193214.953000",
          "193314.890000",
          "193314.906000",
          "193314.906000",
          "193314.906000",
          "193314.906000",
          "193314.906000",
          "193314.906000",
          "193314.906000",
          "193314.921000",
          "193314.921000",
          "193314.921000",
          "193314.921000",
          "193314.921000",
          "193314.921000",
          "193314.921000",
          "193314.921000",
          "193314.937000",
          "193314.937000",
          "193314.937000",
          "193314.937000",
          "193314.937000",
          "193314.937000",
          "193314.937000",
          "193354.890000",
          "193354.906000",
          "193354.906000",
          "193354.906000",
          "193354.906000",
          "193354.906000",
          "193354.906000",
          "193354.906000",
          "193354.921000",
          "193354.921000",
          "193354.921000",
          "193354.921000",
          "193354.921000",
          "193354.921000",
          "193354.921000",
          "193354.921000",
          "193454.890000",
          "193454.890000",
          "193454.906000",
          "193454.906000",
          "193454.906000",
          "193454.906000",
          "193454.906000",
          "193454.906000",
          "193454.921000",
          "193454.921000",
          "193454.921000",
          "193454.921000",
          "193454.921000",
          "193454.921000",
          "193454.937000",
          "193454.937000",
          "193454.937000",
          "193454.937000",
          "193454.937000",
          "193454.937000",
          "193454.937000",
          "193454.937000",
          "193454.953000",
          "193554.890000",
          "193554.890000",
          "193554.890000",
          "193554.890000",
          "193554.906000",
          "193554.906000",
          "193554.906000",
          "193554.906000",
          "193554.906000",
          "193554.906000",
          "193554.906000",
          "193554.921000",
          "193554.921000",
          "193554.921000",
          "193554.921000",
          "193554.921000",
          "193554.921000",
          "193554.937000",
          "193554.937000",
          "193554.937000",
          "193554.937000",
          "193554.937000",
          "193554.937000",
          "193654.890000",
          "193654.890000",
          "193654.890000",
          "193654.890000",
          "193654.906000",
          "193654.906000",
          "193654.906000",
          "193654.906000",
          "193654.906000",
          "193654.906000",
          "193654.906000",
          "193654.906000",
          "193654.921000",
          "193654.921000",
          "193654.921000",
          "193654.921000",
          "193654.921000",
          "193654.937000",
          "193654.937000",
          "193654.937000",
          "193654.937000",
          "193654.937000",
          "193654.937000",
          "193739.968000",
          "193739.968000",
          "193739.968000",
          "193739.968000",
          "193739.968000",
          "193739.968000",
          "193739.968000",
          "193739.984000",
          "193739.984000",
          "193739.984000",
          "193739.984000",
          "193739.984000",
          "193739.984000",
          "193739.984000",
          "193740.000000",
          "193740.000000"
        ],
        "InstanceNumber": [
          1,
          2,
          3,
          4,
          5,
          6,
          7,
          8,
          9,
          10,
          11,
          12,
          13,
          14,
          15,
          16,
          17,
          18,
          19,
          20,
          21,
          22,
          23,
          24,
          25,
          26,
          27,
          28,
          29,
          30,
          31,
          32,
          33,
          34,
          35,
          36,
          37,
          38,
          39,
          40,
          41,
          42,
          43,
          44,
          45,
          46,
          47,
          48,
          49,
          50,
          51,
          52,
          53,
          54,
          55,
          56,
          57,
          58,
          59,
          60,
          61,
          62,
          63,
          64,
          65,
          66,
          67,
          68,
          69,
          70,
          71,
          72,
          73,
          74,
          75,
          76,
          77,
          78,
          79,
          80,
          81,
          82,
          83,
          84,
          85,
          86,
          87,
          88,
          89,
          90,
          91,
          92,
          93,
          94,
          95,
          96,
          97,
          98,
          99,
          100,
          101,
          102,
          103,
          104,
          105,
          106,
          107,
          108,
          109,
          110,
          111,
          112,
          113,
          114,
          115,
          116,
          117,
          118,
          119,
          120,
          121,
          122,
          123,
          124,
          125,
          126,
          127,
          128,
          129,
          130,
          131,
          132,
          133,
          134,
          135,
          136,
          137,
          138,
          139,
          140,
          141,
          142,
          143,
          144,
          145,
          146,
          147,
          148,
          149,
          150,
          151,
          152,
          153,
          154,
          155,
          156,
          157,
          158,
          159,
          160,
          161,
          162,
          163,
          164,
          165,
          166,
          167,
          168,
          169,
          170,
