{
  "aor": 0.0005279629629629629,
  "aqi": 0.012859033796296297,
  "bids_meta": {
    "AcquisitionMatrixPE": 188,
    "AcquisitionNumber": 1,
    "AcquisitionTime": "19:16:21.022500",
    "BandwidthPerPixelPhaseEncode": 19.46,
    "BaseResolution": 188,
    "ConversionSoftware": "dcm2niix",
    "ConversionSoftwareVersion": "v1.0.20180606 GCC4.8.5",
    "DelayTime": 1.2,
    "DerivedVendorReportedEchoSpacing": 0.000820013,
    "DeviceSerialNumber": "18930",
    "DwellTime": 1.9e-06,
    "EchoTime": 0.02,
    "EffectiveEchoSpacing": 0.000273338,
    "FlipAngle": 80,
    "ImageComments": "Unaliased_MB2_PE2",
    "ImageOrientationPatientDICOM": [
      0.998691,
      0.010459,
      -0.0500669,
      -0.051028,
      0.136815,
      -0.989281
    ],
    "ImageType": [
      "ORIGINAL",
      "PRIMARY",
      "M",
      "MB",
      "ND",
      "MOSAIC"
    ],
    "InPlanePhaseEncodingDirectionDICOM": "COL",
    "InstitutionAddress": "Oxfordlaan_55_Maastricht_Limburg_NL_6229_EV",
    "InstitutionName": "Scannexus",
    "InstitutionalDepartmentName": "MRI_7T",
    "MRAcquisitionType": "2D",
    "MagneticFieldStrength": 6.98,
    "Manufacturer": "Siemens",
    "ManufacturersModelName": "Investigational_Device_7T",
    "Modality": "MR",
    "MultibandAccelerationFactor": 2,
    "ParallelReductionFactorInPlane": 3,
    "PartialFourier": 0.75,
    "PatientPosition": "HFS",
    "PercentPhaseFOV": 100,
    "PhaseEncodingDirection": "j",
    "PhaseEncodingSteps": 141,
    "PhaseResolution": 1,
    "PixelBandwidth": 1400,
    "ProcedureStepDescription": "FeDem_fMRI",
    "ProtocolName": "cmrr_mbep2d_bold_AP_run3",
    "PulseSequenceDetails": "%CustomerSeq%_cmrr_mbep2d_bold",
    "ReceiveCoilName": "32Ch_Head_7T",
    "ReconMatrixPE": 188,
    "RepetitionTime": 2.6,
    "SAR": 0.0758324,
    "ScanOptions": "PFP_FS",
    "ScanningSequence": "EP",
    "SequenceName": "epfid2d1_188",
    "SequenceVariant": "SK_SS",
    "SeriesDescription": "cmrr_mbep2d_bold_AP_run3",
    "SeriesNumber": 12,
    "ShimSetting": [
      55,
      -94,
      530,
      314,
      -232,
      380,
      -108,
      83
    ],
    "SliceThickness": 1.1,
    "SliceTiming": [
      0,
      0.7325,
      0.06,
      0.7925,
      0.1225,
      0.855,
      0.1825,
      0.915,
      0.2425,
      0.9775,
      0.305,
      1.0375,
      0.365,
      1.1,
      0.4275,
      1.16,
      0.4875,
      1.2225,
      0.55,
      1.2825,
      0.61,
      1.3425,
      0.6725,
      0,
      0.7325,
      0.06,
      0.7925,
      0.1225,
      0.855,
      0.1825,
      0.915,
      0.2425,
      0.9775,
      0.305,
      1.0375,
      0.365,
      1.1,
      0.4275,
      1.16,
      0.4875,
      1.2225,
      0.55,
      1.2825,
      0.61,
      1.3425,
      0.6725
    ],
    "SoftwareVersions": "syngo_MR_B17",
    "SpacingBetweenSlices": 1.1,
    "StationName": "MRC18930",
    "TaskName": "auditory",
    "TotalReadoutTime": 0.0511141,
    "TxRefAmp": 279,
    "dataset": "ds001942",
    "dcmmeta_affine": [
      [
        -1.0943105220794678,
        -0.05591363459825516,
        0.0038466667756438255,
        104.14334869384766
      ],
      [
        -0.011460354551672935,
        0.14991402626037598,
        -1.0895949602127075,
        32.815391540527344
      ],
      [
        -0.05486052483320236,
        1.0839999914169312,
        0.1508861929178238,
        -117.40580749511719
      ],
      [
        0.0,
        0.0,
        0.0,
        1.0
      ]
    ],
    "dcmmeta_reorient_transform": [
      [
        0.0,
        -1.0,
        0.0,
        187.0
      ],
      [
        1.0,
        0.0,
        0.0,
        0.0
      ],
      [
        0.0,
        0.0,
        1.0,
        0.0
      ],
      [
        0.0,
        0.0,
        0.0,
        1.0
      ]
    ],
    "dcmmeta_shape": [
      188,
      188,
      46,
      216
    ],
    "dcmmeta_slice_dim": 2,
    "dcmmeta_version": 0.6,
    "global": {
      "const": {
        "AcquisitionMatrix": [
          188,
          0,
          0,
          188
        ],
        "AngioFlag": "N",
        "BitsAllocated": 16,
        "BitsStored": 12,
        "Columns": 1316,
        "EchoNumbers": 1,
        "EchoTime": 20.0,
        "EchoTrainLength": 1,
        "FlipAngle": 80.0,
        "HighBit": 11,
        "ImageOrientationPatient": [
          0.99869110192878,
          0.01045896377737,
          -0.0500668853135,
          -0.0510279738583,
          0.13681473115299,
          -0.9892814944309
        ],
        "ImagePositionPatient": [
          -679.34333833819,
          -151.86446109028,
          727.6195128488
        ],
        "ImageType": [
          "ORIGINAL",
          "PRIMARY",
          "M",
          "MB",
          "ND",
          "MOSAIC"
        ],
        "ImagedNucleus": "1H",
        "ImagingFrequency": 297.205549,
        "InPlanePhaseEncodingDirection": "COL",
        "LargestImagePixelValue": 4095,
        "MRAcquisitionType": "2D",
        "MagneticFieldStrength": 6.98,
        "Manufacturer": "SIEMENS",
        "ManufacturerModelName": "Investigational_Device_7T",
        "Modality": "MR",
        "NumberOfAverages": 1.0,
        "NumberOfPhaseEncodingSteps": 141,
        "PercentPhaseFieldOfView": 100.0,
        "PercentSampling": 100.0,
        "PerformedProcedureStepStartTime": "182006.265000",
        "PhotometricInterpretation": "MONOCHROME2",
        "PixelBandwidth": 1400.0,
        "PixelRepresentation": 0,
        "PixelSpacing": [
          1.0957447290421,
          1.0957447290421
        ],
        "ProtocolName": "cmrr_mbep2d_bold_AP_run3",
        "RepetitionTime": 2600.0,
        "Rows": 1316,
        "SAR": 0.07583242031992,
        "SamplesPerPixel": 1,
        "ScanOptions": [
          "PFP",
          "FS"
        ],
        "ScanningSequence": "EP",
        "SequenceName": "epfid2d1_188",
        "SequenceVariant": [
          "SK",
          "SS"
        ],
        "SeriesDescription": "cmrr_mbep2d_bold_AP_run3",
        "SeriesNumber": 12,
        "SeriesTime": "191716.500000",
        "SliceLocation": -48.245298268939,
        "SliceThickness": 1.1000000238419,
        "SmallestImagePixelValue": 0,
        "SoftwareVersions": "syngo MR B17",
        "SpacingBetweenSlices": 1.0999993358473,
        "SpecificCharacterSet": "ISO_IR 100",
        "StudyID": "1",
        "StudyTime": "182006.125000",
        "TransmitCoilName": "32Ch_Head_7T",
        "VariableFlipAngleFlag": "N",
        "WindowCenterWidthExplanation": "Algo1",
        "dBdt": 0.0
      },
      "slices": {}
    },
    "modality": "bold",
    "run_id": 3,
    "session_id": "SES05",
    "subject_id": "S01",
    "task_id": "auditory",
    "time": {
      "samples": {
        "AcquisitionNumber": [
          1,
          2,
          3,
          4,
          5,
          6,
          7,
          8,
          9,
          10,
          11,
          12,
          13,
          14,
          15,
          16,
          17,
          18,
          19,
          20,
          21,
          22,
          23,
          24,
          25,
          26,
          27,
          28,
          29,
          30,
          31,
          32,
          33,
          34,
          35,
          36,
          37,
          38,
          39,
          40,
          41,
          42,
          43,
          44,
          45,
          46,
          47,
          48,
          49,
          50,
          51,
          52,
          53,
          54,
          55,
          56,
          57,
          58,
          59,
          60,
          61,
          62,
          63,
          64,
          65,
          66,
          67,
          68,
          69,
          70,
          71,
          72,
          73,
          74,
          75,
          76,
          77,
          78,
          79,
          80,
          81,
          82,
          83,
          84,
          85,
          86,
          87,
          88,
          89,
          90,
          91,
          92,
          93,
          94,
          95,
          96,
          97,
          98,
          99,
          100,
          101,
          102,
          103,
          104,
          105,
          106,
          107,
          108,
          109,
          110,
          111,
          112,
          113,
          114,
          115,
          116,
          117,
          118,
          119,
          120,
          121,
          122,
          123,
          124,
          125,
          126,
          127,
          128,
          129,
          130,
          131,
          132,
          133,
          134,
          135,
          136,
          137,
          138,
          139,
          140,
          141,
          142,
          143,
          144,
          145,
          146,
          147,
          148,
          149,
          150,
          151,
          152,
          153,
          154,
          155,
          156,
          157,
          158,
          159,
          160,
          161,
          162,
          163,
          164,
          165,
          166,
          167,
          168,
          169,
          170,
          171,
          172,
          173,
          174,
          175,
          176,
          177,
          178,
          179,
          180,
          181,
          182,
          183,
          184,
          185,
          186,
          187,
          188,
          189,
          190,
          191,
          192,
          193,
          194,
          195,
          196,
          197,
          198,
          199,
          200,
          201,
          202,
          203,
          204,
          205,
          206,
          207,
          208,
          209,
          210,
          211,
          212,
          213,
          214,
          215,
          216
        ],
        "AcquisitionTime": [
          "191621.022500",
          "191623.632500",
          "191626.242500",
          "191628.852500",
          "191631.462500",
          "191634.075000",
          "191636.685000",
          "191639.295000",
          "191641.905000",
          "191644.515000",
          "191647.125000",
          "191649.737500",
          "191652.347500",
          "191654.957500",
          "191657.567500",
          "191700.177500",
          "191702.790000",
          "191705.400000",
          "191708.010000",
          "191710.620000",
          "191713.230000",
          "191715.840000",
          "191718.452500",
          "191721.062500",
          "191723.672500",
          "191726.282500",
          "191728.892500",
          "191731.502500",
          "191734.115000",
          "191736.725000",
          "191739.335000",
          "191741.945000",
          "191744.555000",
          "191747.167500",
          "191749.777500",
          "191752.387500",
          "191754.997500",
          "191757.607500",
          "191800.217500",
          "191802.830000",
          "191805.440000",
          "191808.050000",
          "191810.660000",
          "191813.270000",
          "191815.880000",
          "191818.492500",
          "191821.102500",
          "191823.712500",
          "191826.322500",
          "191828.932500",
          "191831.545000",
          "191834.155000",
          "191836.765000",
          "191839.375000",
          "191841.985000",
          "191844.595000",
          "191847.207500",
          "191849.817500",
          "191852.427500",
          "191855.037500",
          "191857.647500",
          "191900.257500",
          "191902.870000",
          "191905.480000",
          "191908.090000",
          "191910.700000",
          "191913.310000",
          "191915.922500",
          "191918.532500",
          "191921.142500",
          "191923.752500",
          "191926.362500",
          "191928.972500",
          "191931.585000",
          "191934.195000",
          "191936.805000",
          "191939.415000",
          "191942.025000",
          "191944.635000",
          "191947.247500",
          "191949.857500",
          "191952.467500",
          "191955.077500",
          "191957.687500",
          "192000.300000",
          "192002.910000",
          "192005.520000",
          "192008.130000",
          "192010.740000",
          "192013.350000",
          "192015.962500",
          "192018.572500",
          "192021.182500",
          "192023.792500",
          "192026.402500",
          "192029.012500",
          "192031.625000",
          "192034.235000",
          "192036.845000",
          "192039.455000",
          "192042.065000",
          "192044.677500",
          "192047.287500",
          "192049.897500",
          "192052.507500",
          "192055.117500",
          "192057.727500",
          "192100.340000",
          "192102.950000",
          "192105.560000",
          "192108.170000",
          "192110.780000",
          "192113.390000",
          "192116.002500",
          "192118.612500",
          "192121.222500",
          "192123.832500",
          "192126.442500",
          "192129.055000",
          "192131.665000",
          "192134.275000",
          "192136.885000",
          "192139.495000",
          "192142.105000",
          "192144.717500",
          "192147.327500",
          "192149.937500",
          "192152.547500",
          "192155.157500",
          "192157.767500",
          "192200.380000",
          "192202.990000",
          "192205.600000",
          "192208.210000",
          "192210.820000",
          "192213.432500",
          "192216.042500",
          "192218.652500",
          "192221.262500",
          "192223.872500",
          "192226.482500",
          "192229.095000",
          "192231.705000",
          "192234.315000",
          "192236.925000",
          "192239.535000",
          "192242.147500",
          "192244.757500",
          "192247.367500",
          "192249.977500",
          "192252.587500",
          "192255.197500",
          "192257.810000",
          "192300.420000",
          "192303.030000",
          "192305.640000",
          "192308.250000",
          "192310.860000",
          "192313.472500",
          "192316.082500",
          "192318.692500",
          "192321.302500",
          "192323.912500",
          "192326.525000",
          "192329.135000",
          "192331.745000",
          "192334.355000",
          "192336.965000",
          "192339.575000",
          "192342.187500",
          "192344.797500",
          "192347.407500",
          "192350.017500",
          "192352.627500",
          "192355.237500",
          "192357.850000",
          "192400.460000",
          "192403.070000",
          "192405.680000",
          "192408.290000",
          "192410.902500",
          "192413.512500",
          "192416.122500",
          "192418.732500",
          "192421.342500",
          "192423.952500",
          "192426.565000",
          "192429.175000",
          "192431.785000",
          "192434.395000",
          "192437.005000",
          "192439.615000",
          "192442.227500",
          "192444.837500",
          "192447.447500",
          "192450.057500",
          "192452.667500",
          "192455.280000",
          "192457.890000",
          "192500.500000",
          "192503.110000",
          "192505.720000",
          "192508.330000",
          "192510.942500",
          "192513.552500",
          "192516.162500",
          "192518.772500",
          "192521.382500",
          "192523.992500",
          "192526.605000",
          "192529.215000",
          "192531.825000",
          "192534.435000",
          "192537.045000",
          "192539.657500",
          "192542.267500"
        ],
        "ContentTime": [
          "191716.500000",
          "191716.515000",
          "191716.531000",
          "191716.531000",
          "191716.531000",
          "191716.531000",
          "191716.546000",
          "191716.546000",
          "191716.546000",
          "191716.546000",
          "191716.546000",
          "191716.546000",
          "191716.546000",
          "191716.562000",
          "191716.562000",
          "191716.562000",
          "191716.562000",
          "191716.562000",
          "191716.562000",
          "191716.562000",
          "191816.500000",
          "191816.500000",
          "191816.500000",
          "191816.500000",
          "191816.500000",
          "191816.515000",
          "191816.515000",
          "191816.515000",
          "191816.515000",
          "191816.515000",
          "191816.515000",
          "191816.515000",
          "191816.531000",
          "191816.531000",
          "191816.531000",
          "191816.531000",
          "191816.546000",
          "191816.546000",
          "191816.546000",
          "191816.546000",
          "191816.546000",
          "191816.546000",
          "191816.546000",
          "191916.500000",
          "191916.500000",
          "191916.500000",
          "191916.500000",
          "191916.500000",
          "191916.515000",
          "191916.515000",
          "191916.515000",
          "191916.515000",
          "191916.515000",
          "191916.515000",
          "191916.531000",
          "191916.531000",
          "191916.531000",
          "191916.546000",
          "191916.546000",
          "191916.546000",
          "191916.546000",
          "191916.562000",
          "191916.562000",
          "191916.562000",
          "191916.562000",
          "191916.562000",
          "192016.500000",
          "192016.500000",
          "192016.500000",
          "192016.500000",
          "192016.515000",
          "192016.515000",
          "192016.515000",
          "192016.515000",
          "192016.515000",
          "192016.515000",
          "192016.515000",
          "192016.515000",
          "192016.531000",
          "192016.531000",
          "192016.531000",
          "192016.531000",
          "192016.531000",
          "192016.531000",
          "192016.531000",
          "192016.546000",
          "192016.546000",
          "192016.546000",
          "192016.546000",
          "192016.546000",
          "192116.500000",
          "192116.500000",
          "192116.500000",
          "192116.515000",
          "192116.515000",
          "192116.515000",
          "192116.515000",
          "192116.515000",
          "192116.515000",
          "192116.531000",
          "192116.531000",
          "192116.531000",
          "192116.531000",
          "192116.531000",
          "192116.531000",
          "192116.531000",
          "192116.546000",
          "192116.546000",
          "192116.546000",
          "192116.562000",
          "192116.562000",
          "192116.562000",
          "192116.562000",
          "192216.500000",
          "192216.500000",
          "192216.500000",
          "192216.500000",
          "192216.515000",
          "192216.515000",
          "192216.515000",
          "192216.515000",
          "192216.515000",
          "192216.515000",
          "192216.515000",
          "192216.531000",
          "192216.531000",
          "192216.531000",
          "192216.531000",
          "192216.531000",
          "192216.531000",
          "192216.531000",
          "192216.531000",
          "192216.546000",
          "192216.546000",
          "192216.562000",
          "192216.562000",
          "192316.500000",
          "192316.500000",
          "192316.500000",
          "192316.500000",
          "192316.500000",
          "192316.515000",
          "192316.515000",
          "192316.515000",
          "192316.515000",
          "192316.515000",
          "192316.515000",
          "192316.515000",
          "192316.531000",
          "192316.531000",
          "192316.531000",
          "192316.531000",
          "192316.531000",
          "192316.531000",
          "192316.531000",
          "192316.546000",
          "192316.546000",
          "192316.546000",
          "192316.546000",
          "192416.500000",
          "192416.500000",
          "192416.500000",
          "192416.500000",
          "192416.500000",
          "192416.515000",
          "192416.515000",
          "192416.515000",
          "192416.515000",
          "192416.515000",
          "192416.515000",
          "192416.531000",
          "192416.531000",
          "192416.531000",
          "192416.531000",
          "192416.531000",
          "192416.531000",
          "192416.546000",
          "192416.546000",
          "192416.546000",
          "192416.546000",
          "192416.546000",
          "192416.546000",
          "192516.500000",
          "192516.500000",
          "192516.515000",
          "192516.515000",
          "192516.531000",
          "192516.531000",
          "192516.531000",
          "192516.531000",
          "192516.531000",
          "192516.531000",
          "192516.531000",
          "192516.546000",
          "192516.546000",
          "192516.546000",
          "192516.546000",
          "192516.546000",
          "192516.546000",
          "192516.546000",
          "192516.562000",
          "192516.562000",
          "192516.562000",
          "192516.562000",
          "192516.562000",
          "192548.921000",
          "192548.921000",
          "192548.937000",
          "192548.937000",
          "192548.937000",
          "192548.937000",
          "192548.937000",
          "192548.937000",
          "192548.937000",
          "192548.953000",
          "192548.953000"
        ],
        "InstanceCreationTime": [
          "191716.500000",
          "191716.515000",
          "191716.531000",
          "191716.531000",
          "191716.531000",
          "191716.531000",
          "191716.546000",
          "191716.546000",
          "191716.546000",
          "191716.546000",
          "191716.546000",
          "191716.546000",
          "191716.546000",
          "191716.562000",
          "191716.562000",
          "191716.562000",
          "191716.562000",
          "191716.562000",
          "191716.562000",
          "191716.562000",
          "191816.500000",
          "191816.500000",
          "191816.500000",
          "191816.500000",
          "191816.500000",
          "191816.515000",
          "191816.515000",
          "191816.515000",
          "191816.515000",
          "191816.515000",
          "191816.515000",
          "191816.515000",
          "191816.531000",
          "191816.531000",
          "191816.531000",
          "191816.531000",
          "191816.546000",
          "191816.546000",
          "191816.546000",
          "191816.546000",
          "191816.546000",
          "191816.546000",
          "191816.546000",
          "191916.500000",
          "191916.500000",
          "191916.500000",
          "191916.500000",
          "191916.500000",
          "191916.515000",
          "191916.515000",
          "191916.515000",
          "191916.515000",
          "191916.515000",
          "191916.515000",
          "191916.531000",
          "191916.531000",
          "191916.531000",
          "191916.546000",
          "191916.546000",
          "191916.546000",
          "191916.546000",
          "191916.562000",
          "191916.562000",
          "191916.562000",
          "191916.562000",
          "191916.562000",
          "192016.500000",
          "192016.500000",
          "192016.500000",
          "192016.500000",
          "192016.515000",
          "192016.515000",
          "192016.515000",
          "192016.515000",
          "192016.515000",
          "192016.515000",
          "192016.515000",
          "192016.515000",
          "192016.531000",
          "192016.531000",
          "192016.531000",
          "192016.531000",
          "192016.531000",
          "192016.531000",
          "192016.531000",
          "192016.546000",
          "192016.546000",
          "192016.546000",
          "192016.546000",
          "192016.546000",
          "192116.500000",
          "192116.500000",
          "192116.500000",
          "192116.515000",
          "192116.515000",
          "192116.515000",
          "192116.515000",
          "192116.515000",
          "192116.515000",
          "192116.531000",
          "192116.531000",
          "192116.531000",
          "192116.531000",
          "192116.531000",
          "192116.531000",
          "192116.531000",
          "192116.546000",
          "192116.546000",
          "192116.546000",
          "192116.562000",
          "192116.562000",
          "192116.562000",
          "192116.562000",
          "192216.500000",
          "192216.500000",
          "192216.500000",
          "192216.500000",
          "192216.515000",
          "192216.515000",
          "192216.515000",
          "192216.515000",
          "192216.515000",
          "192216.515000",
          "192216.515000",
          "192216.531000",
          "192216.531000",
          "192216.531000",
          "192216.531000",
          "192216.531000",
          "192216.531000",
          "192216.531000",
          "192216.531000",
          "192216.546000",
          "192216.546000",
          "192216.562000",
          "192216.562000",
          "192316.500000",
          "192316.500000",
          "192316.500000",
          "192316.500000",
          "192316.500000",
          "192316.515000",
          "192316.515000",
          "192316.515000",
          "192316.515000",
          "192316.515000",
          "192316.515000",
          "192316.515000",
          "192316.531000",
          "192316.531000",
          "192316.531000",
          "192316.531000",
          "192316.531000",
          "192316.531000",
          "192316.531000",
          "192316.546000",
          "192316.546000",
          "192316.546000",
          "192316.546000",
          "192416.500000",
          "192416.500000",
          "192416.500000",
          "192416.500000",
          "192416.500000",
          "192416.515000",
          "192416.515000",
          "192416.515000",
          "192416.515000",
          "192416.515000",
          "192416.515000",
          "192416.531000",
          "192416.531000",
          "192416.531000",
          "192416.531000",
          "192416.531000",
          "192416.531000",
          "192416.546000",
          "192416.546000",
          "192416.546000",
          "192416.546000",
          "192416.546000",
          "192416.546000",
          "192516.500000",
          "192516.500000",
          "192516.515000",
          "192516.515000",
          "192516.531000",
          "192516.531000",
          "192516.531000",
          "192516.531000",
          "192516.531000",
          "192516.531000",
          "192516.531000",
          "192516.546000",
          "192516.546000",
          "192516.546000",
          "192516.546000",
          "192516.546000",
          "192516.546000",
          "192516.546000",
          "192516.562000",
          "192516.562000",
          "192516.562000",
          "192516.562000",
          "192516.562000",
          "192548.921000",
          "192548.921000",
          "192548.937000",
          "192548.937000",
          "192548.937000",
          "192548.937000",
          "192548.937000",
          "192548.937000",
          "192548.937000",
          "192548.953000",
          "192548.953000"
        ],
        "InstanceNumber": [
          1,
          2,
          3,
          4,
          5,
          6,
          7,
          8,
          9,
          10,
          11,
          12,
          13,
          14,
          15,
          16,
          17,
          18,
          19,
          20,
          21,
          22,
          23,
          24,
          25,
          26,
          27,
          28,
          29,
          30,
          31,
          32,
          33,
          34,
          35,
          36,
          37,
          38,
          39,
          40,
          41,
          42,
          43,
          44,
          45,
          46,
          47,
          48,
          49,
          50,
          51,
          52,
          53,
          54,
          55,
          56,
          57,
          58,
          59,
          60,
          61,
          62,
          63,
          64,
          65,
          66,
          67,
          68,
          69,
          70,
          71,
          72,
          73,
          74,
          75,
          76,
          77,
          78,
          79,
          80,
          81,
          82,
          83,
          84,
          85,
          86,
          87,
          88,
          89,
          90,
          91,
          92,
          93,
          94,
          95,
          96,
          97,
          98,
          99,
          100,
          101,
          102,
          103,
          104,
          105,
          106,
          107,
          108,
          109,
          110,
          111,
          112,
          113,
          114,
          115,
          116,
          117,
          118,
          119,
          120,
          121,
          122,
          123,
          124,
          125,
          126,
          127,
          128,
          129,
          130,
          131,
          132,
          133,
          134,
          135,
          136,
          137,
          138,
          139,
          140,
          141,
          142,
          143,
          144,
          145,
          146,
          147,
          148,
          149,
          150,
          151,
          152,
          153,
          154,
          155,
          156,
          157,
          158,
          159,
          160,
          161,
          162,
          163,
          164,
          165,
          166,
          167,
          168,
          169,
          170,
