{
  "aor": 0.0004416744186046512,
  "aqi": 0.014557292558139534,
  "bids_meta": {
    "AcquisitionMatrixPE": 188,
    "AcquisitionNumber": 1,
    "AcquisitionTime": "19:27:15.017500",
    "BandwidthPerPixelPhaseEncode": 19.46,
    "BaseResolution": 188,
    "ConversionSoftware": "dcm2niix",
    "ConversionSoftwareVersion": "v1.0.20180606 GCC4.8.5",
    "DelayTime": 1.2,
    "DerivedVendorReportedEchoSpacing": 0.000820013,
    "DeviceSerialNumber": "18930",
    "DwellTime": 1.9e-06,
    "EchoTime": 0.02,
    "EffectiveEchoSpacing": 0.000273338,
    "FlipAngle": 80,
    "ImageComments": "Unaliased_MB2_PE2",
    "ImageOrientationPatientDICOM": [
      0.998691,
      0.010459,
      -0.0500669,
      -0.051028,
      0.136815,
      -0.989281
    ],
    "ImageType": [
      "ORIGINAL",
      "PRIMARY",
      "M",
      "MB",
      "ND",
      "MOSAIC"
    ],
    "InPlanePhaseEncodingDirectionDICOM": "COL",
    "InstitutionAddress": "Oxfordlaan_55_Maastricht_Limburg_NL_6229_EV",
    "InstitutionName": "Scannexus",
    "InstitutionalDepartmentName": "MRI_7T",
    "MRAcquisitionType": "2D",
    "MagneticFieldStrength": 6.98,
    "Manufacturer": "Siemens",
    "ManufacturersModelName": "Investigational_Device_7T",
    "Modality": "MR",
    "MultibandAccelerationFactor": 2,
    "ParallelReductionFactorInPlane": 3,
    "PartialFourier": 0.75,
    "PatientPosition": "HFS",
    "PercentPhaseFOV": 100,
    "PhaseEncodingDirection": "j",
    "PhaseEncodingSteps": 141,
    "PhaseResolution": 1,
    "PixelBandwidth": 1400,
    "ProcedureStepDescription": "FeDem_fMRI",
    "ProtocolName": "cmrr_mbep2d_bold_AP_run4",
    "PulseSequenceDetails": "%CustomerSeq%_cmrr_mbep2d_bold",
    "ReceiveCoilName": "32Ch_Head_7T",
    "ReconMatrixPE": 188,
    "RepetitionTime": 2.6,
    "SAR": 0.0757429,
    "ScanOptions": "PFP_FS",
    "ScanningSequence": "EP",
    "SequenceName": "epfid2d1_188",
    "SequenceVariant": "SK_SS",
    "SeriesDescription": "cmrr_mbep2d_bold_AP_run4",
    "SeriesNumber": 13,
    "ShimSetting": [
      55,
      -94,
      530,
      314,
      -232,
      380,
      -108,
      83
    ],
    "SliceThickness": 1.1,
    "SliceTiming": [
      0,
      0.7325,
      0.06,
      0.795,
      0.1225,
      0.855,
      0.1825,
      0.9175,
      0.245,
      0.9775,
      0.305,
      1.0375,
      0.3675,
      1.1,
      0.4275,
      1.16,
      0.4875,
      1.2225,
      0.55,
      1.2825,
      0.61,
      1.345,
      0.6725,
      0,
      0.7325,
      0.06,
      0.795,
      0.1225,
      0.855,
      0.1825,
      0.9175,
      0.245,
      0.9775,
      0.305,
      1.0375,
      0.3675,
      1.1,
      0.4275,
      1.16,
      0.4875,
      1.2225,
      0.55,
      1.2825,
      0.61,
      1.345,
      0.6725
    ],
    "SoftwareVersions": "syngo_MR_B17",
    "SpacingBetweenSlices": 1.1,
    "StationName": "MRC18930",
    "TaskName": "auditory",
    "TotalReadoutTime": 0.0511141,
    "TxRefAmp": 279,
    "dataset": "ds001942",
    "dcmmeta_affine": [
      [
        -1.0943105220794678,
        -0.05591363459825516,
        0.0038466667756438255,
        104.14334869384766
      ],
      [
        -0.011460354551672935,
        0.14991402626037598,
        -1.0895949602127075,
        32.815391540527344
      ],
      [
        -0.05486052483320236,
        1.0839999914169312,
        0.1508861929178238,
        -117.40580749511719
      ],
      [
        0.0,
        0.0,
        0.0,
        1.0
      ]
    ],
    "dcmmeta_reorient_transform": [
      [
        0.0,
        -1.0,
        0.0,
        187.0
      ],
      [
        1.0,
        0.0,
        0.0,
        0.0
      ],
      [
        0.0,
        0.0,
        1.0,
        0.0
      ],
      [
        0.0,
        0.0,
        0.0,
        1.0
      ]
    ],
    "dcmmeta_shape": [
      188,
      188,
      46,
      216
    ],
    "dcmmeta_slice_dim": 2,
    "dcmmeta_version": 0.6,
    "global": {
      "const": {
        "AcquisitionMatrix": [
          188,
          0,
          0,
          188
        ],
        "AngioFlag": "N",
        "BitsAllocated": 16,
        "BitsStored": 12,
        "Columns": 1316,
        "EchoNumbers": 1,
        "EchoTime": 20.0,
        "EchoTrainLength": 1,
        "FlipAngle": 80.0,
        "HighBit": 11,
        "ImageOrientationPatient": [
          0.99869110192878,
          0.01045896377737,
          -0.0500668853135,
          -0.0510279738583,
          0.13681473115299,
          -0.9892814944309
        ],
        "ImagePositionPatient": [
          -679.34333833819,
          -151.86446109028,
          727.6195128488
        ],
        "ImageType": [
          "ORIGINAL",
          "PRIMARY",
          "M",
          "MB",
          "ND",
          "MOSAIC"
        ],
        "ImagedNucleus": "1H",
        "ImagingFrequency": 297.205554,
        "InPlanePhaseEncodingDirection": "COL",
        "LargestImagePixelValue": 4095,
        "MRAcquisitionType": "2D",
        "MagneticFieldStrength": 6.98,
        "Manufacturer": "SIEMENS",
        "ManufacturerModelName": "Investigational_Device_7T",
        "Modality": "MR",
        "NumberOfAverages": 1.0,
        "NumberOfPhaseEncodingSteps": 141,
        "PercentPhaseFieldOfView": 100.0,
        "PercentSampling": 100.0,
        "PerformedProcedureStepStartTime": "182006.265000",
        "PhotometricInterpretation": "MONOCHROME2",
        "PixelBandwidth": 1400.0,
        "PixelRepresentation": 0,
        "PixelSpacing": [
          1.0957447290421,
          1.0957447290421
        ],
        "ProtocolName": "cmrr_mbep2d_bold_AP_run4",
        "RepetitionTime": 2600.0,
        "Rows": 1316,
        "SAR": 0.0757428994308,
        "SamplesPerPixel": 1,
        "ScanOptions": [
          "PFP",
          "FS"
        ],
        "ScanningSequence": "EP",
        "SequenceName": "epfid2d1_188",
        "SequenceVariant": [
          "SK",
          "SS"
        ],
        "SeriesDescription": "cmrr_mbep2d_bold_AP_run4",
        "SeriesNumber": 13,
        "SeriesTime": "192742.468000",
        "SliceLocation": -48.245298268939,
        "SliceThickness": 1.1000000238419,
        "SmallestImagePixelValue": 0,
        "SoftwareVersions": "syngo MR B17",
        "SpacingBetweenSlices": 1.0999993358473,
        "SpecificCharacterSet": "ISO_IR 100",
        "StudyID": "1",
        "StudyTime": "182006.125000",
        "TransmitCoilName": "32Ch_Head_7T",
        "VariableFlipAngleFlag": "N",
        "WindowCenterWidthExplanation": "Algo1",
        "dBdt": 0.0
      },
      "slices": {}
    },
    "modality": "bold",
    "run_id": 4,
    "session_id": "SES05",
    "subject_id": "S01",
    "task_id": "auditory",
    "time": {
      "samples": {
        "AcquisitionNumber": [
          1,
          2,
          3,
          4,
          5,
          6,
          7,
          8,
          9,
          10,
          11,
          12,
          13,
          14,
          15,
          16,
          17,
          18,
          19,
          20,
          21,
          22,
          23,
          24,
          25,
          26,
          27,
          28,
          29,
          30,
          31,
          32,
          33,
          34,
          35,
          36,
          37,
          38,
          39,
          40,
          41,
          42,
          43,
          44,
          45,
          46,
          47,
          48,
          49,
          50,
          51,
          52,
          53,
          54,
          55,
          56,
          57,
          58,
          59,
          60,
          61,
          62,
          63,
          64,
          65,
          66,
          67,
          68,
          69,
          70,
          71,
          72,
          73,
          74,
          75,
          76,
          77,
          78,
          79,
          80,
          81,
          82,
          83,
          84,
          85,
          86,
          87,
          88,
          89,
          90,
          91,
          92,
          93,
          94,
          95,
          96,
          97,
          98,
          99,
          100,
          101,
          102,
          103,
          104,
          105,
          106,
          107,
          108,
          109,
          110,
          111,
          112,
          113,
          114,
          115,
          116,
          117,
          118,
          119,
          120,
          121,
          122,
          123,
          124,
          125,
          126,
          127,
          128,
          129,
          130,
          131,
          132,
          133,
          134,
          135,
          136,
          137,
          138,
          139,
          140,
          141,
          142,
          143,
          144,
          145,
          146,
          147,
          148,
          149,
          150,
          151,
          152,
          153,
          154,
          155,
          156,
          157,
          158,
          159,
          160,
          161,
          162,
          163,
          164,
          165,
          166,
          167,
          168,
          169,
          170,
          171,
          172,
          173,
          174,
          175,
          176,
          177,
          178,
          179,
          180,
          181,
          182,
          183,
          184,
          185,
          186,
          187,
          188,
          189,
          190,
          191,
          192,
          193,
          194,
          195,
          196,
          197,
          198,
          199,
          200,
          201,
          202,
          203,
          204,
          205,
          206,
          207,
          208,
          209,
          210,
          211,
          212,
          213,
          214,
          215,
          216
        ],
        "AcquisitionTime": [
          "192715.017500",
          "192717.627500",
          "192720.237500",
          "192722.847500",
          "192725.460000",
          "192728.070000",
          "192730.680000",
          "192733.290000",
          "192735.900000",
          "192738.512500",
          "192741.122500",
          "192743.732500",
          "192746.342500",
          "192748.952500",
          "192751.562500",
          "192754.175000",
          "192756.785000",
          "192759.395000",
          "192802.005000",
          "192804.615000",
          "192807.225000",
          "192809.837500",
          "192812.447500",
          "192815.057500",
          "192817.667500",
          "192820.277500",
          "192822.890000",
          "192825.500000",
          "192828.110000",
          "192830.720000",
          "192833.330000",
          "192835.940000",
          "192838.552500",
          "192841.162500",
          "192843.772500",
          "192846.382500",
          "192848.992500",
          "192851.602500",
          "192854.215000",
          "192856.825000",
          "192859.435000",
          "192902.045000",
          "192904.655000",
          "192907.267500",
          "192909.877500",
          "192912.487500",
          "192915.097500",
          "192917.707500",
          "192920.317500",
          "192922.930000",
          "192925.540000",
          "192928.150000",
          "192930.760000",
          "192933.370000",
          "192935.980000",
          "192938.592500",
          "192941.202500",
          "192943.812500",
          "192946.422500",
          "192949.032500",
          "192951.645000",
          "192954.255000",
          "192956.865000",
          "192959.475000",
          "193002.085000",
          "193004.695000",
          "193007.307500",
          "193009.917500",
          "193012.527500",
          "193015.137500",
          "193017.747500",
          "193020.357500",
          "193022.970000",
          "193025.580000",
          "193028.190000",
          "193030.800000",
          "193033.410000",
          "193036.022500",
          "193038.632500",
          "193041.242500",
          "193043.852500",
          "193046.462500",
          "193049.072500",
          "193051.685000",
          "193054.295000",
          "193056.905000",
          "193059.515000",
          "193102.125000",
          "193104.735000",
          "193107.347500",
          "193109.957500",
          "193112.567500",
          "193115.177500",
          "193117.787500",
          "193120.400000",
          "193123.010000",
          "193125.620000",
          "193128.230000",
          "193130.840000",
          "193133.450000",
          "193136.062500",
          "193138.672500",
          "193141.282500",
          "193143.892500",
          "193146.502500",
          "193149.112500",
          "193151.725000",
          "193154.335000",
          "193156.945000",
          "193159.555000",
          "193202.165000",
          "193204.777500",
          "193207.387500",
          "193209.997500",
          "193212.607500",
          "193215.217500",
          "193217.827500",
          "193220.440000",
          "193223.050000",
          "193225.660000",
          "193228.270000",
          "193230.880000",
          "193233.490000",
          "193236.102500",
          "193238.712500",
          "193241.322500",
          "193243.932500",
          "193246.542500",
          "193249.155000",
          "193251.765000",
          "193254.375000",
          "193256.985000",
          "193259.595000",
          "193302.205000",
          "193304.817500",
          "193307.427500",
          "193310.037500",
          "193312.647500",
          "193315.257500",
          "193317.867500",
          "193320.480000",
          "193323.090000",
          "193325.700000",
          "193328.310000",
          "193330.920000",
          "193333.532500",
          "193336.142500",
          "193338.752500",
          "193341.362500",
          "193343.972500",
          "193346.582500",
          "193349.195000",
          "193351.805000",
          "193354.415000",
          "193357.025000",
          "193359.635000",
          "193402.245000",
          "193404.857500",
          "193407.467500",
          "193410.077500",
          "193412.687500",
          "193415.297500",
          "193417.910000",
          "193420.520000",
          "193423.130000",
          "193425.740000",
          "193428.350000",
          "193430.960000",
          "193433.572500",
          "193436.182500",
          "193438.792500",
          "193441.402500",
          "193444.012500",
          "193446.622500",
          "193449.235000",
          "193451.845000",
          "193454.455000",
          "193457.065000",
          "193459.675000",
          "193502.287500",
          "193504.897500",
          "193507.507500",
          "193510.117500",
          "193512.727500",
          "193515.337500",
          "193517.950000",
          "193520.560000",
          "193523.170000",
          "193525.780000",
          "193528.390000",
          "193531.000000",
          "193533.612500",
          "193536.222500",
          "193538.832500",
          "193541.442500",
          "193544.052500",
          "193546.665000",
          "193549.275000",
          "193551.885000",
          "193554.495000",
          "193557.105000",
          "193559.715000",
          "193602.327500",
          "193604.937500",
          "193607.547500",
          "193610.157500",
          "193612.767500",
          "193615.377500",
          "193617.990000",
          "193620.600000",
          "193623.210000",
          "193625.820000",
          "193628.430000",
          "193631.042500",
          "193633.652500",
          "193636.262500"
        ],
        "ContentTime": [
          "192742.468000",
          "192742.484000",
          "192742.484000",
          "192742.484000",
          "192742.484000",
          "192742.500000",
          "192742.500000",
          "192742.500000",
          "192742.500000",
          "192842.468000",
          "192842.468000",
          "192842.468000",
          "192842.484000",
          "192842.484000",
          "192842.484000",
          "192842.484000",
          "192842.484000",
          "192842.484000",
          "192842.484000",
          "192842.500000",
          "192842.500000",
          "192842.500000",
          "192842.500000",
          "192842.500000",
          "192842.500000",
          "192842.515000",
          "192842.515000",
          "192842.515000",
          "192842.515000",
          "192842.515000",
          "192842.515000",
          "192842.531000",
          "192842.531000",
          "192942.468000",
          "192942.468000",
          "192942.468000",
          "192942.484000",
          "192942.484000",
          "192942.484000",
          "192942.500000",
          "192942.500000",
          "192942.500000",
          "192942.500000",
          "192942.500000",
          "192942.500000",
          "192942.515000",
          "192942.515000",
          "192942.515000",
          "192942.515000",
          "192942.515000",
          "192942.515000",
          "192942.515000",
          "192942.531000",
          "192942.531000",
          "192942.531000",
          "192942.531000",
          "193042.468000",
          "193042.468000",
          "193042.468000",
          "193042.468000",
          "193042.484000",
          "193042.484000",
          "193042.484000",
          "193042.484000",
          "193042.484000",
          "193042.484000",
          "193042.484000",
          "193042.500000",
          "193042.500000",
          "193042.500000",
          "193042.500000",
          "193042.500000",
          "193042.500000",
          "193042.515000",
          "193042.515000",
          "193042.515000",
          "193042.515000",
          "193042.515000",
          "193042.515000",
          "193142.468000",
          "193142.468000",
          "193142.468000",
          "193142.484000",
          "193142.484000",
          "193142.484000",
          "193142.484000",
          "193142.484000",
          "193142.484000",
          "193142.500000",
          "193142.500000",
          "193142.500000",
          "193142.500000",
          "193142.500000",
          "193142.500000",
          "193142.500000",
          "193142.515000",
          "193142.515000",
          "193142.515000",
          "193142.515000",
          "193142.515000",
          "193142.515000",
          "193142.515000",
          "193242.468000",
          "193242.468000",
          "193242.468000",
          "193242.468000",
          "193242.468000",
          "193242.484000",
          "193242.484000",
          "193242.484000",
          "193242.484000",
          "193242.484000",
          "193242.484000",
          "193242.484000",
          "193242.484000",
          "193242.500000",
          "193242.500000",
          "193242.500000",
          "193242.500000",
          "193242.515000",
          "193242.515000",
          "193242.515000",
          "193242.531000",
          "193242.531000",
          "193242.531000",
          "193342.468000",
          "193342.468000",
          "193342.468000",
          "193342.468000",
          "193342.468000",
          "193342.484000",
          "193342.484000",
          "193342.484000",
          "193342.484000",
          "193342.484000",
          "193342.484000",
          "193342.484000",
          "193342.500000",
          "193342.500000",
          "193342.500000",
          "193342.500000",
          "193342.500000",
          "193342.500000",
          "193342.500000",
          "193342.515000",
          "193342.515000",
          "193342.515000",
          "193342.515000",
          "193442.468000",
          "193442.468000",
          "193442.468000",
          "193442.468000",
          "193442.468000",
          "193442.484000",
          "193442.484000",
          "193442.484000",
          "193442.484000",
          "193442.484000",
          "193442.484000",
          "193442.500000",
          "193442.500000",
          "193442.500000",
          "193442.500000",
          "193442.500000",
          "193442.500000",
          "193442.515000",
          "193442.515000",
          "193442.515000",
          "193442.515000",
          "193442.515000",
          "193442.515000",
          "193542.468000",
          "193542.468000",
          "193542.468000",
          "193542.468000",
          "193542.468000",
          "193542.484000",
          "193542.484000",
          "193542.484000",
          "193542.484000",
          "193542.484000",
          "193542.484000",
          "193542.500000",
          "193542.500000",
          "193542.500000",
          "193542.500000",
          "193542.500000",
          "193542.500000",
          "193542.500000",
          "193542.500000",
          "193542.515000",
          "193542.515000",
          "193542.515000",
          "193542.531000",
          "193642.468000",
          "193642.468000",
          "193642.468000",
          "193642.468000",
          "193642.484000",
          "193642.484000",
          "193642.484000",
          "193642.484000",
          "193642.500000",
          "193642.500000",
          "193642.500000",
          "193642.500000",
          "193642.500000",
          "193642.500000",
          "193642.500000",
          "193642.500000",
          "193642.515000",
          "193642.515000",
          "193642.515000",
          "193642.515000",
          "193642.515000",
          "193643.171000"
        ],
        "InstanceCreationTime": [
          "192742.468000",
          "192742.484000",
          "192742.484000",
          "192742.484000",
          "192742.484000",
          "192742.500000",
          "192742.500000",
          "192742.500000",
          "192742.500000",
          "192842.468000",
          "192842.468000",
          "192842.468000",
          "192842.484000",
          "192842.484000",
          "192842.484000",
          "192842.484000",
          "192842.484000",
          "192842.484000",
          "192842.484000",
          "192842.500000",
          "192842.500000",
          "192842.500000",
          "192842.500000",
          "192842.500000",
          "192842.500000",
          "192842.515000",
          "192842.515000",
          "192842.515000",
          "192842.515000",
          "192842.515000",
          "192842.515000",
          "192842.531000",
          "192842.531000",
          "192942.468000",
          "192942.468000",
          "192942.468000",
          "192942.484000",
          "192942.484000",
          "192942.484000",
          "192942.500000",
          "192942.500000",
          "192942.500000",
          "192942.500000",
          "192942.500000",
          "192942.500000",
          "192942.515000",
          "192942.515000",
          "192942.515000",
          "192942.515000",
          "192942.515000",
          "192942.515000",
          "192942.515000",
          "192942.531000",
          "192942.531000",
          "192942.531000",
          "192942.531000",
          "193042.468000",
          "193042.468000",
          "193042.468000",
          "193042.468000",
          "193042.484000",
          "193042.484000",
          "193042.484000",
          "193042.484000",
          "193042.484000",
          "193042.484000",
          "193042.484000",
          "193042.500000",
          "193042.500000",
          "193042.500000",
          "193042.500000",
          "193042.500000",
          "193042.500000",
          "193042.515000",
          "193042.515000",
          "193042.515000",
          "193042.515000",
          "193042.515000",
          "193042.515000",
          "193142.468000",
          "193142.468000",
          "193142.468000",
          "193142.484000",
          "193142.484000",
          "193142.484000",
          "193142.484000",
          "193142.484000",
          "193142.484000",
          "193142.500000",
          "193142.500000",
          "193142.500000",
          "193142.500000",
          "193142.500000",
          "193142.500000",
          "193142.500000",
          "193142.515000",
          "193142.515000",
          "193142.515000",
          "193142.515000",
          "193142.515000",
          "193142.515000",
          "193142.515000",
          "193242.468000",
          "193242.468000",
          "193242.468000",
          "193242.468000",
          "193242.468000",
          "193242.484000",
          "193242.484000",
          "193242.484000",
          "193242.484000",
          "193242.484000",
          "193242.484000",
          "193242.484000",
          "193242.484000",
          "193242.500000",
          "193242.500000",
          "193242.500000",
          "193242.500000",
          "193242.515000",
          "193242.515000",
          "193242.515000",
          "193242.531000",
          "193242.531000",
          "193242.531000",
          "193342.468000",
          "193342.468000",
          "193342.468000",
          "193342.468000",
          "193342.468000",
          "193342.484000",
          "193342.484000",
          "193342.484000",
          "193342.484000",
          "193342.484000",
          "193342.484000",
          "193342.484000",
          "193342.500000",
          "193342.500000",
          "193342.500000",
          "193342.500000",
          "193342.500000",
          "193342.500000",
          "193342.500000",
          "193342.515000",
          "193342.515000",
          "193342.515000",
          "193342.515000",
          "193442.468000",
          "193442.468000",
          "193442.468000",
          "193442.468000",
          "193442.468000",
          "193442.484000",
          "193442.484000",
          "193442.484000",
          "193442.484000",
          "193442.484000",
          "193442.484000",
          "193442.500000",
          "193442.500000",
          "193442.500000",
          "193442.500000",
          "193442.500000",
          "193442.500000",
          "193442.515000",
          "193442.515000",
          "193442.515000",
          "193442.515000",
          "193442.515000",
          "193442.515000",
          "193542.468000",
          "193542.468000",
          "193542.468000",
          "193542.468000",
          "193542.468000",
          "193542.484000",
          "193542.484000",
          "193542.484000",
          "193542.484000",
          "193542.484000",
          "193542.484000",
          "193542.500000",
          "193542.500000",
          "193542.500000",
          "193542.500000",
          "193542.500000",
          "193542.500000",
          "193542.500000",
          "193542.500000",
          "193542.515000",
          "193542.515000",
          "193542.515000",
          "193542.531000",
          "193642.468000",
          "193642.468000",
          "193642.468000",
          "193642.468000",
          "193642.484000",
          "193642.484000",
          "193642.484000",
          "193642.484000",
          "193642.500000",
          "193642.500000",
          "193642.500000",
          "193642.500000",
          "193642.500000",
          "193642.500000",
          "193642.500000",
          "193642.500000",
          "193642.515000",
          "193642.515000",
          "193642.515000",
          "193642.515000",
          "193642.515000",
          "193643.171000"
        ],
        "InstanceNumber": [
          1,
          2,
          3,
          4,
          5,
          6,
          7,
          8,
          9,
          10,
          11,
          12,
          13,
          14,
          15,
          16,
          17,
          18,
          19,
          20,
          21,
          22,
          23,
          24,
          25,
          26,
          27,
          28,
          29,
          30,
          31,
          32,
          33,
          34,
          35,
          36,
          37,
          38,
          39,
          40,
          41,
          42,
          43,
          44,
          45,
          46,
          47,
          48,
          49,
          50,
          51,
          52,
          53,
          54,
          55,
          56,
          57,
          58,
          59,
          60,
          61,
          62,
          63,
          64,
          65,
          66,
          67,
          68,
          69,
          70,
          71,
          72,
          73,
          74,
          75,
          76,
          77,
          78,
          79,
          80,
          81,
          82,
          83,
          84,
          85,
          86,
          87,
          88,
          89,
          90,
          91,
          92,
          93,
          94,
          95,
          96,
          97,
          98,
          99,
          100,
          101,
          102,
          103,
          104,
          105,
          106,
          107,
          108,
          109,
          110,
          111,
          112,
          113,
          114,
          115,
          116,
          117,
          118,
          119,
          120,
          121,
          122,
          123,
          124,
          125,
          126,
          127,
          128,
          129,
          130,
          131,
          132,
          133,
          134,
          135,
          136,
          137,
          138,
          139,
          140,
          141,
          142,
          143,
          144,
          145,
          146,
          147,
          148,
          149,
          150,
          151,
          152,
          153,
          154,
          155,
          156,
          157,
          158,
          159,
          160,
          161,
          162,
          163,
          164,
          165,
          166,
          167,
          168,
          169,
          170,
