{
  "aor": 0.0005340666666666668,
  "aqi": 0.019476586666666667,
  "bids_meta": {
    "AcquisitionMatrixPE": 188,
    "AcquisitionNumber": 1,
    "AcquisitionTime": "12:29:28.187500",
    "BandwidthPerPixelPhaseEncode": 19.46,
    "BaseResolution": 188,
    "CogAtlasID": "TODO",
    "ConversionSoftware": "dcm2niix",
    "ConversionSoftwareVersion": "v1.0.20180606 GCC4.8.5",
    "DelayTime": 1.2,
    "DerivedVendorReportedEchoSpacing": 0.000820013,
    "DeviceSerialNumber": "18930",
    "DwellTime": 1.9e-06,
    "EchoTime": 0.02,
    "EffectiveEchoSpacing": 0.000273338,
    "FlipAngle": 80,
    "ImageComments": "Unaliased_MB2_PE2",
    "ImageOrientationPatientDICOM": [
      0.999367,
      0.0250678,
      0.0252539,
      0.0224824,
      0.105276,
      -0.994189
    ],
    "ImageType": [
      "ORIGINAL",
      "PRIMARY",
      "M",
      "MB",
      "ND",
      "MOSAIC"
    ],
    "InPlanePhaseEncodingDirectionDICOM": "COL",
    "InstitutionAddress": "Oxfordlaan_55_Maastricht_22AAA2_Limburg_NL_6229_EV",
    "InstitutionName": "Scannexus",
    "InstitutionalDepartmentName": "MRI_7T",
    "MRAcquisitionType": "2D",
    "MagneticFieldStrength": 6.98,
    "Manufacturer": "Siemens",
    "ManufacturersModelName": "Investigational_Device_7T",
    "Modality": "MR",
    "MultibandAccelerationFactor": 2,
    "ParallelReductionFactorInPlane": 3,
    "PartialFourier": 0.75,
    "PatientPosition": "HFS",
    "PercentPhaseFOV": 100,
    "PhaseEncodingDirection": "j",
    "PhaseEncodingSteps": 141,
    "PhaseResolution": 1,
    "PixelBandwidth": 1400,
    "ProcedureStepDescription": "FeDem_Faruk",
    "ProtocolName": "cmrr_mbep2d_bold_AP_run1",
    "PulseSequenceDetails": "%CustomerSeq%_cmrr_mbep2d_bold",
    "ReceiveCoilName": "32Ch_Head_7T",
    "ReconMatrixPE": 188,
    "RepetitionTime": 2.6,
    "SAR": 0.0880501,
    "ScanOptions": "PFP_FS",
    "ScanningSequence": "EP",
    "SequenceName": "epfid2d1_188",
    "SequenceVariant": "SK_SS",
    "SeriesDescription": "cmrr_mbep2d_bold_AP_run1",
    "SeriesNumber": 12,
    "ShimSetting": [
      150,
      -120,
      519,
      382,
      159,
      49,
      -160,
      140
    ],
    "SliceThickness": 1.1,
    "SliceTiming": [
      0,
      0.7325,
      0.06,
      0.795,
      0.1225,
      0.855,
      0.1825,
      0.9175,
      0.245,
      0.9775,
      0.305,
      1.04,
      0.3675,
      1.1,
      0.4275,
      1.16,
      0.49,
      1.2225,
      0.55,
      1.2825,
      0.61,
      1.345,
      0.6725,
      0,
      0.7325,
      0.06,
      0.795,
      0.1225,
      0.855,
      0.1825,
      0.9175,
      0.245,
      0.9775,
      0.305,
      1.04,
      0.3675,
      1.1,
      0.4275,
      1.16,
      0.49,
      1.2225,
      0.55,
      1.2825,
      0.61,
      1.345,
      0.6725
    ],
    "SoftwareVersions": "syngo_MR_B17",
    "SpacingBetweenSlices": 1.1,
    "StationName": "MRC18930",
    "TaskName": "auditory",
    "TotalReadoutTime": 0.0511141,
    "TxRefAmp": 240,
    "dataset": "ds001942",
    "dcmmeta_affine": [
      [
        -1.0950508117675781,
        0.02463494800031185,
        0.03033878467977047,
        101.2935791015625
      ],
      [
        -0.027467874810099602,
        0.11535520106554031,
        -1.0935395956039429,
        35.535362243652344
      ],
      [
        0.027671849355101585,
        1.0893772840499878,
        0.1151098757982254,
        -123.33378601074219
      ],
      [
        0.0,
        0.0,
        0.0,
        1.0
      ]
    ],
    "dcmmeta_reorient_transform": [
      [
        0.0,
        -1.0,
        0.0,
        187.0
      ],
      [
        1.0,
        0.0,
        0.0,
        0.0
      ],
      [
        0.0,
        0.0,
        1.0,
        0.0
      ],
      [
        0.0,
        0.0,
        0.0,
        1.0
      ]
    ],
    "dcmmeta_shape": [
      188,
      188,
      46,
      150
    ],
    "dcmmeta_slice_dim": 2,
    "dcmmeta_version": 0.6,
    "global": {
      "const": {
        "AcquisitionMatrix": [
          188,
          0,
          0,
          188
        ],
        "AngioFlag": "N",
        "BitsAllocated": 16,
        "BitsStored": 12,
        "Columns": 1316,
        "EchoNumbers": 1,
        "EchoTime": 20.0,
        "EchoTrainLength": 1,
        "FlipAngle": 80.0,
        "HighBit": 11,
        "ImageOrientationPatient": [
          0.9993667227694,
          0.02506776778243,
          0.02525391929116,
          0.02248237943943,
          0.10527561308265,
          -0.9941889095664
        ],
        "ImagePositionPatient": [
          -737.40308492712,
          -137.65899729473,
          679.18161313505
        ],
        "ImageType": [
          "ORIGINAL",
          "PRIMARY",
          "M",
          "MB",
          "ND",
          "MOSAIC"
        ],
        "ImagedNucleus": "1H",
        "ImagingFrequency": 297.205632,
        "InPlanePhaseEncodingDirection": "COL",
        "LargestImagePixelValue": 4095,
        "MRAcquisitionType": "2D",
        "MagneticFieldStrength": 6.98,
        "Manufacturer": "SIEMENS",
        "ManufacturerModelName": "Investigational_Device_7T",
        "Modality": "MR",
        "NumberOfAverages": 1.0,
        "NumberOfPhaseEncodingSteps": 141,
        "PercentPhaseFieldOfView": 100.0,
        "PercentSampling": 100.0,
        "PerformedProcedureStepStartTime": "115818.375000",
        "PhotometricInterpretation": "MONOCHROME2",
        "PixelBandwidth": 1400.0,
        "PixelRepresentation": 0,
        "PixelSpacing": [
          1.0957447290421,
          1.0957447290421
        ],
        "ProtocolName": "cmrr_mbep2d_bold_AP_run1",
        "RepetitionTime": 2600.0,
        "Rows": 1316,
        "SAR": 0.0880501309673,
        "SamplesPerPixel": 1,
        "ScanOptions": [
          "PFP",
          "FS"
        ],
        "ScanningSequence": "EP",
        "SequenceName": "epfid2d1_188",
        "SequenceVariant": [
          "SK",
          "SS"
        ],
        "SeriesDescription": "cmrr_mbep2d_bold_AP_run1",
        "SeriesNumber": 12,
        "SeriesTime": "122937.140000",
        "SliceLocation": -45.439224808025,
        "SliceThickness": 1.1000000238419,
        "SmallestImagePixelValue": 0,
        "SoftwareVersions": "syngo MR B17",
        "SpacingBetweenSlices": 1.0999998200792,
        "SpecificCharacterSet": "ISO_IR 100",
        "StudyID": "1",
        "StudyTime": "115818.265000",
        "TransmitCoilName": "32Ch_Head_7T",
        "VariableFlipAngleFlag": "N",
        "WindowCenterWidthExplanation": "Algo1",
        "dBdt": 0.0
      },
      "slices": {}
    },
    "modality": "bold",
    "run_id": 1,
    "session_id": "SES03",
    "subject_id": "S02",
    "task_id": "auditory",
    "time": {
      "samples": {
        "AcquisitionNumber": [
          1,
          2,
          3,
          4,
          5,
          6,
          7,
          8,
          9,
          10,
          11,
          12,
          13,
          14,
          15,
          16,
          17,
          18,
          19,
          20,
          21,
          22,
          23,
          24,
          25,
          26,
          27,
          28,
          29,
          30,
          31,
          32,
          33,
          34,
          35,
          36,
          37,
          38,
          39,
          40,
          41,
          42,
          43,
          44,
          45,
          46,
          47,
          48,
          49,
          50,
          51,
          52,
          53,
          54,
          55,
          56,
          57,
          58,
          59,
          60,
          61,
          62,
          63,
          64,
          65,
          66,
          67,
          68,
          69,
          70,
          71,
          72,
          73,
          74,
          75,
          76,
          77,
          78,
          79,
          80,
          81,
          82,
          83,
          84,
          85,
          86,
          87,
          88,
          89,
          90,
          91,
          92,
          93,
          94,
          95,
          96,
          97,
          98,
          99,
          100,
          101,
          102,
          103,
          104,
          105,
          106,
          107,
          108,
          109,
          110,
          111,
          112,
          113,
          114,
          115,
          116,
          117,
          118,
          119,
          120,
          121,
          122,
          123,
          124,
          125,
          126,
          127,
          128,
          129,
          130,
          131,
          132,
          133,
          134,
          135,
          136,
          137,
          138,
          139,
          140,
          141,
          142,
          143,
          144,
          145,
          146,
          147,
          148,
          149,
          150
        ],
        "AcquisitionTime": [
          "122928.187500",
          "122930.797500",
          "122933.407500",
          "122936.020000",
          "122938.630000",
          "122941.240000",
          "122943.850000",
          "122946.460000",
          "122949.070000",
          "122951.682500",
          "122954.292500",
          "122956.902500",
          "122959.512500",
          "123002.122500",
          "123004.735000",
          "123007.345000",
          "123009.955000",
          "123012.565000",
          "123015.175000",
          "123017.785000",
          "123020.397500",
          "123023.007500",
          "123025.617500",
          "123028.227500",
          "123030.837500",
          "123033.447500",
          "123036.060000",
          "123038.670000",
          "123041.280000",
          "123043.890000",
          "123046.500000",
          "123049.112500",
          "123051.722500",
          "123054.332500",
          "123056.942500",
          "123059.552500",
          "123102.162500",
          "123104.775000",
          "123107.385000",
          "123109.995000",
          "123112.605000",
          "123115.215000",
          "123117.825000",
          "123120.437500",
          "123123.047500",
          "123125.657500",
          "123128.267500",
          "123130.877500",
          "123133.490000",
          "123136.100000",
          "123138.710000",
          "123141.320000",
          "123143.930000",
          "123146.540000",
          "123149.152500",
          "123151.762500",
          "123154.372500",
          "123156.982500",
          "123159.592500",
          "123202.202500",
          "123204.815000",
          "123207.425000",
          "123210.035000",
          "123212.645000",
          "123215.255000",
          "123217.867500",
          "123220.477500",
          "123223.087500",
          "123225.697500",
          "123228.307500",
          "123230.917500",
          "123233.530000",
          "123236.140000",
          "123238.750000",
          "123241.360000",
          "123243.970000",
          "123246.580000",
          "123249.192500",
          "123251.802500",
          "123254.412500",
          "123257.022500",
          "123259.632500",
          "123302.245000",
          "123304.855000",
          "123307.465000",
          "123310.075000",
          "123312.685000",
          "123315.295000",
          "123317.907500",
          "123320.517500",
          "123323.127500",
          "123325.737500",
          "123328.347500",
          "123330.957500",
          "123333.570000",
          "123336.180000",
          "123338.790000",
          "123341.400000",
          "123344.010000",
          "123346.622500",
          "123349.232500",
          "123351.842500",
          "123354.452500",
          "123357.062500",
          "123359.672500",
          "123402.285000",
          "123404.895000",
          "123407.505000",
          "123410.115000",
          "123412.725000",
          "123415.335000",
          "123417.947500",
          "123420.557500",
          "123423.167500",
          "123425.777500",
          "123428.387500",
          "123431.000000",
          "123433.610000",
          "123436.220000",
          "123438.830000",
          "123441.440000",
          "123444.050000",
          "123446.662500",
          "123449.272500",
          "123451.882500",
          "123454.492500",
          "123457.102500",
          "123459.712500",
          "123502.325000",
          "123504.935000",
          "123507.545000",
          "123510.155000",
          "123512.765000",
          "123515.377500",
          "123517.987500",
          "123520.597500",
          "123523.207500",
          "123525.817500",
          "123528.427500",
          "123531.040000",
          "123533.650000",
          "123536.260000",
          "123538.870000",
          "123541.480000",
          "123544.092500",
          "123546.702500",
          "123549.312500",
          "123551.922500",
          "123554.532500",
          "123557.142500"
        ],
        "ContentTime": [
          "122937.140000",
          "122937.640000",
          "122938.140000",
          "122940.640000",
          "122943.140000",
          "122945.640000",
          "122948.640000",
          "122951.140000",
          "122953.640000",
          "122956.140000",
          "122958.640000",
          "123001.640000",
          "123004.140000",
          "123006.640000",
          "123009.140000",
          "123011.640000",
          "123014.640000",
          "123017.140000",
          "123019.640000",
          "123022.140000",
          "123024.640000",
          "123027.640000",
          "123030.140000",
          "123032.640000",
          "123035.140000",
          "123037.640000",
          "123040.640000",
          "123043.140000",
          "123045.640000",
          "123048.140000",
          "123050.640000",
          "123053.640000",
          "123056.140000",
          "123058.640000",
          "123101.140000",
          "123103.640000",
          "123106.640000",
          "123109.140000",
          "123111.640000",
          "123114.140000",
          "123117.140000",
          "123119.640000",
          "123122.140000",
          "123124.640000",
          "123127.140000",
          "123129.640000",
          "123132.640000",
          "123135.140000",
          "123137.640000",
          "123140.140000",
          "123142.640000",
          "123145.640000",
          "123148.140000",
          "123150.640000",
          "123153.140000",
          "123155.640000",
          "123158.640000",
          "123201.140000",
          "123203.640000",
          "123206.140000",
          "123209.140000",
          "123211.640000",
          "123214.140000",
          "123216.640000",
          "123219.140000",
          "123221.640000",
          "123224.640000",
          "123227.140000",
          "123229.640000",
          "123232.140000",
          "123234.640000",
          "123237.640000",
          "123240.140000",
          "123242.640000",
          "123245.140000",
          "123248.140000",
          "123250.640000",
          "123253.140000",
          "123255.640000",
          "123258.140000",
          "123300.640000",
          "123303.640000",
          "123306.140000",
          "123308.640000",
          "123311.140000",
          "123313.640000",
          "123316.640000",
          "123319.140000",
          "123321.640000",
          "123324.140000",
          "123326.640000",
          "123329.640000",
          "123332.140000",
          "123334.640000",
          "123337.140000",
          "123339.640000",
          "123342.640000",
          "123345.140000",
          "123347.640000",
          "123350.140000",
          "123352.640000",
          "123355.640000",
          "123358.140000",
          "123400.640000",
          "123403.140000",
          "123406.140000",
          "123408.640000",
          "123411.140000",
          "123413.640000",
          "123416.140000",
          "123418.640000",
          "123421.640000",
          "123424.140000",
          "123426.640000",
          "123429.140000",
          "123431.640000",
          "123434.640000",
          "123437.140000",
          "123439.640000",
          "123442.140000",
          "123445.140000",
          "123447.640000",
          "123450.140000",
          "123452.640000",
          "123455.140000",
          "123457.640000",
          "123500.640000",
          "123503.140000",
          "123505.640000",
          "123508.140000",
          "123510.640000",
          "123513.640000",
          "123516.140000",
          "123518.640000",
          "123521.140000",
          "123523.640000",
          "123526.640000",
          "123529.140000",
          "123531.640000",
          "123534.140000",
          "123536.640000",
          "123539.640000",
          "123542.140000",
          "123544.640000",
          "123547.140000",
          "123549.640000",
          "123552.640000",
          "123555.140000",
          "123557.640000",
          "123605.000000"
        ],
        "InstanceCreationTime": [
          "122937.140000",
          "122937.640000",
          "122938.140000",
          "122940.640000",
          "122943.140000",
          "122945.640000",
          "122948.640000",
          "122951.140000",
          "122953.640000",
          "122956.140000",
          "122958.640000",
          "123001.640000",
          "123004.140000",
          "123006.640000",
          "123009.140000",
          "123011.640000",
          "123014.640000",
          "123017.140000",
          "123019.640000",
          "123022.140000",
          "123024.640000",
          "123027.640000",
          "123030.140000",
          "123032.640000",
          "123035.140000",
          "123037.640000",
          "123040.640000",
          "123043.140000",
          "123045.640000",
          "123048.140000",
          "123050.640000",
          "123053.640000",
          "123056.140000",
          "123058.640000",
          "123101.140000",
          "123103.640000",
          "123106.640000",
          "123109.140000",
          "123111.640000",
          "123114.140000",
          "123117.140000",
          "123119.640000",
          "123122.140000",
          "123124.640000",
          "123127.140000",
          "123129.640000",
          "123132.640000",
          "123135.140000",
          "123137.640000",
          "123140.140000",
          "123142.640000",
          "123145.640000",
          "123148.140000",
          "123150.640000",
          "123153.140000",
          "123155.640000",
          "123158.640000",
          "123201.140000",
          "123203.640000",
          "123206.140000",
          "123209.140000",
          "123211.640000",
          "123214.140000",
          "123216.640000",
          "123219.140000",
          "123221.640000",
          "123224.640000",
          "123227.140000",
          "123229.640000",
          "123232.140000",
          "123234.640000",
          "123237.640000",
          "123240.140000",
          "123242.640000",
          "123245.140000",
          "123248.140000",
          "123250.640000",
          "123253.140000",
          "123255.640000",
          "123258.140000",
          "123300.640000",
          "123303.640000",
          "123306.140000",
          "123308.640000",
          "123311.140000",
          "123313.640000",
          "123316.640000",
          "123319.140000",
          "123321.640000",
          "123324.140000",
          "123326.640000",
          "123329.640000",
          "123332.140000",
          "123334.640000",
          "123337.140000",
          "123339.640000",
          "123342.640000",
          "123345.140000",
          "123347.640000",
          "123350.140000",
          "123352.640000",
          "123355.640000",
          "123358.140000",
          "123400.640000",
          "123403.140000",
          "123406.140000",
          "123408.640000",
          "123411.140000",
          "123413.640000",
          "123416.140000",
          "123418.640000",
          "123421.640000",
          "123424.140000",
          "123426.640000",
          "123429.140000",
          "123431.640000",
          "123434.640000",
          "123437.140000",
          "123439.640000",
          "123442.140000",
          "123445.140000",
          "123447.640000",
          "123450.140000",
          "123452.640000",
          "123455.140000",
          "123457.640000",
          "123500.640000",
          "123503.140000",
          "123505.640000",
          "123508.140000",
          "123510.640000",
          "123513.640000",
          "123516.140000",
          "123518.640000",
          "123521.140000",
          "123523.640000",
          "123526.640000",
          "123529.140000",
          "123531.640000",
          "123534.140000",
          "123536.640000",
          "123539.640000",
          "123542.140000",
          "123544.640000",
          "123547.140000",
          "123549.640000",
          "123552.640000",
          "123555.140000",
          "123557.640000",
          "123605.000000"
        ],
        "InstanceNumber": [
          1,
          2,
          3,
          4,
          5,
          6,
          7,
          8,
          9,
          10,
          11,
          12,
          13,
          14,
          15,
          16,
          17,
          18,
          19,
          20,
          21,
          22,
          23,
          24,
          25,
          26,
          27,
          28,
          29,
          30,
          31,
          32,
          33,
          34,
          35,
          36,
          37,
          38,
          39,
          40,
          41,
          42,
          43,
          44,
          45,
          46,
          47,
          48,
          49,
          50,
          51,
          52,
          53,
          54,
          55,
          56,
          57,
          58,
          59,
          60,
          61,
          62,
          63,
          64,
          65,
          66,
          67,
          68,
          69,
          70,
          71,
          72,
          73,
          74,
          75,
          76,
          77,
          78,
          79,
          80,
          81,
          82,
          83,
          84,
          85,
          86,
          87,
          88,
          89,
          90,
          91,
          92,
          93,
          94,
          95,
          96,
          97,
          98,
          99,
          100,
          101,
          102,
          103,
          104,
          105,
          106,
          107,
          108,
          109,
          110,
          111,
          112,
          113,
          114,
          115,
          116,
          117,
          118,
          119,
          120,
          121,
          122,
          123,
          124,
          125,
          126,
          127,
          128,
          129,
          130,
          131,
          132,
          133,
          134,
          135,
          136,
          137,
          138,
          139,
          140,
          141,
          142,
          143,
          144,
          145,
          146,
          147,
          148,
          149,
          150
        ],
        "WindowCenter": [
          949.0,
          946.0,
          947.0,
          945.0,
          945.0,
          946.0,
          945.0,
          947.0,
          947.0,
          947.0,
          946.0,
          946.0,
          944.0,
          946.0,
          946.0,
          945.0,
          945.0,
          949.0,
          946.0,
          945.0,
          946.0,
          949.0,
          948.0,
          947.0,
          948.0,
          948.0,
          947.0,
          947.0,
          948.0,
          947.0,
          946.0,
          949.0,
          948.0,
          946.0,
          947.0,
          947.0,
          945.0,
          945.0,
          946.0,
          946.0,
          946.0,
          946.0,
          946.0,
          945.0,
          946.0,
          947.0,
          946.0,
          946.0,
          948.0,
          947.0,
          945.0,
          946.0,
          948.0,
          947.0,
          946.0,
          947.0,
          947.0,
          947.0,
          947.0,
          947.0,
          948.0,
          947.0,
          948.0,
          946.0,
          947.0,
          948.0,
          945.0,
          946.0,
          948.0,
          946.0,
          945.0,
          947.0,
          948.0,
          947.0,
          945.0,
          945.0,
          948.0,
          947.0,
          946.0,
          946.0,
          947.0,
          948.0,
          948.0,
          949.0,
          950.0,
          948.0,
          948.0,
          949.0,
          949.0,
          948.0,
          948.0,
          950.0,
          949.0,
          947.0,
          946.0,
          947.0,
          947.0,
          947.0,
          948.0,
          948.0,
          948.0,
          947.0,
          949.0,
          947.0,
          946.0,
          948.0,
          948.0,
          947.0,
          948.0,
          949.0,
          949.0,
          948.0,
          949.0,
          949.0,
          949.0,
          949.0,
          948.0,
          948.0,
          950.0,
          949.0,
          947.0,
          947.0,
          950.0,
          948.0,
          946.0,
          946.0,
          948.0,
          948.0,
          947.0,
          948.0,
          949.0,
          949.0,
          948.0,
          948.0,
          949.0,
          950.0,
          949.0,
          949.0,
          950.0,
          950.0,
          949.0,
          949.0,
          950.0,
          949.0,
          948.0,
          948.0,
          948.0,
          948.0,
          949.0,
          950.0
        ],
        "WindowWidth": [
          2200.0,
          2190.0,
          2191.0,
          2183.0,
          2187.0,
          2187.0,
          2186.0,
          2194.0,
          2191.0,
          2191.0,
          2189.0,
          2189.0,
          2181.0,
          2191.0,
          2189.0,
          2187.0,
          2186.0,
          2197.0,
          2188.0,
          2185.0,
          2190.0,
          2198.0,
          2195.0,
          2192.0,
          2197.0,
          2198.0,
          2192.0,
          2193.0,
          2195.0,
          2194.0,
          2191.0,
          2199.0,
          2196.0,
          2190.0,
          2192.0,
          2190.0,
          2186.0,
          2186.0,
          2189.0,
          2190.0,
          2188.0,
          2189.0,
          2188.0,
          2187.0,
          2190.0,
          2193.0,
          2189.0,
          2190.0,
          2196.0,
          2191.0,
          2186.0,
          2188.0,
          2196.0,
          2193.0,
          2190.0,
          2194.0,
          2193.0,
          2192.0,
          2193.0,
          2194.0,
          2195.0,
          2194.0,
          2196.0,
          2190.0,
          2193.0,
          2194.0,
          2187.0,
          2191.0,
          2196.0,
          2188.0,
          2186.0,
          2191.0,
          2196.0,
          2191.0,
          2185.0,
          2186.0,
          2196.0,
          2192.0,
          2191.0,
          2189.0,
          2194.0,
          2197.0,
          2196.0,
          2198.0,
          2201.0,
          2195.0,
          2195.0,
          2199.0,
          2198.0,
          2194.0,
          2195.0,
          2203.0,
          2198.0,
          2191.0,
          2190.0,
          2194.0,
          2192.0,
          2192.0,
          2195.0,
          2196.0,
          2194.0,
          2194.0,
          2198.0,
          2191.0,
          2190.0,
          2195.0,
          2197.0,
          2192.0,
          2196.0,
          2198.0,
          2198.0,
          2196.0,
          2199.0,
          2198.0,
          2200.0,
          2199.0,
          2194.0,
          2196.0,
          2202.0,
          2198.0,
          2193.0,
          2193.0,
          2201.0,
          2194.0,
          2191.0,
          2190.0,
          2195.0,
          2195.0,
          2193.0,
          2196.0,
          2199.0,
          2197.0,
          2194.0,
          2196.0,
          2200.0,
          2202.0,
          2197.0,
          2200.0,
          2203.0,
          2203.0,
          2199.0,
          2198.0,
          2202.0,
          2198.0,
          2199.0,
          2198.0,
          2197.0,
          2196.0,
          2199.0,
          2202.0
        ]
      },
      "slices": {}
    }
  },
  "dummy_trs": 0,
  "dvars_nstd": 75.96866500120802,
  "dvars_std": 1.0147874989261743,
  "dvars_vstd": 0.9918258442281873,
  "efc": 0.5860803517402112,
  "fber": 214.25125122070312,
  "fd_mean": 0.0668670255331058,
  "fd_num": 3,
  "fd_perc": 2.0,
  "fwhm_avg": 3.1804568255432777,
  "fwhm_x": 3.02011947882525,
  "fwhm_y": 3.0304412259441134,
  "fwhm_z": 3.4908097718604685,
  "gcor": 0.00152133,
  "gsr_x": 0.04741404578089714,
  "gsr_y": 0.012982863001525402,
  "provenance": {
    "md5sum": "8fdac505eb35240875b0a6c9ae4a95b2",
    "settings": {
      "fd_thres": 0.2,
      "testing": false
    },
    "software": "mriqc",
    "version": "22.0.0rc1",
    "webapi_port": null,
    "webapi_url": "https://mriqc.nimh.nih.gov/api/v1"
  },
  "size_t": 150,
  "size_x": 188,
  "size_y": 188,
  "size_z": 46,
  "snr": 1.9357525121719157,
  "spacing_tr": 2.5999999046325684,
  "spacing_x": 1.0957447290420532,
  "spacing_y": 1.0957447290420532,
  "spacing_z": 1.0999997854232788,
  "summary_bg_k": 43.12827735565298,
  "summary_bg_mad": 39.79304942659613,
  "summary_bg_mean": 120.07322692871094,
  "summary_bg_median": 67.68000030517578,
  "summary_bg_n": 1017589.0,
  "summary_bg_p05": 34.459999084472656,
  "summary_bg_p95": 349.2173400878905,
