{
  "aor": 0.0008796,
  "aqi": 0.013006877333333333,
  "bids_meta": {
    "AcquisitionMatrixPE": 188,
    "AcquisitionNumber": 1,
    "AcquisitionTime": "12:59:57.292500",
    "BandwidthPerPixelPhaseEncode": 19.46,
    "BaseResolution": 188,
    "CogAtlasID": "TODO",
    "ConversionSoftware": "dcm2niix",
    "ConversionSoftwareVersion": "v1.0.20180606 GCC4.8.5",
    "DelayTime": 1.2,
    "DerivedVendorReportedEchoSpacing": 0.000820013,
    "DeviceSerialNumber": "18930",
    "DwellTime": 1.9e-06,
    "EchoTime": 0.02,
    "EffectiveEchoSpacing": 0.000273338,
    "FlipAngle": 80,
    "ImageComments": "Unaliased_MB2_PE2",
    "ImageOrientationPatientDICOM": [
      0.999367,
      0.0250678,
      0.0252539,
      0.0224824,
      0.105276,
      -0.994189
    ],
    "ImageType": [
      "ORIGINAL",
      "PRIMARY",
      "M",
      "MB",
      "ND",
      "MOSAIC"
    ],
    "InPlanePhaseEncodingDirectionDICOM": "COL",
    "InstitutionAddress": "Oxfordlaan_55_Maastricht_22AAA2_Limburg_NL_6229_EV",
    "InstitutionName": "Scannexus",
    "InstitutionalDepartmentName": "MRI_7T",
    "MRAcquisitionType": "2D",
    "MagneticFieldStrength": 6.98,
    "Manufacturer": "Siemens",
    "ManufacturersModelName": "Investigational_Device_7T",
    "Modality": "MR",
    "MultibandAccelerationFactor": 2,
    "ParallelReductionFactorInPlane": 3,
    "PartialFourier": 0.75,
    "PatientPosition": "HFS",
    "PercentPhaseFOV": 100,
    "PhaseEncodingDirection": "j",
    "PhaseEncodingSteps": 141,
    "PhaseResolution": 1,
    "PixelBandwidth": 1400,
    "ProcedureStepDescription": "FeDem_Faruk",
    "ProtocolName": "cmrr_mbep2d_bold_AP_run5",
    "PulseSequenceDetails": "%CustomerSeq%_cmrr_mbep2d_bold",
    "ReceiveCoilName": "32Ch_Head_7T",
    "ReconMatrixPE": 188,
    "RepetitionTime": 2.6,
    "SAR": 0.0885949,
    "ScanOptions": "PFP_FS",
    "ScanningSequence": "EP",
    "SequenceName": "epfid2d1_188",
    "SequenceVariant": "SK_SS",
    "SeriesDescription": "cmrr_mbep2d_bold_AP_run5",
    "SeriesNumber": 16,
    "ShimSetting": [
      150,
      -120,
      519,
      382,
      159,
      49,
      -160,
      140
    ],
    "SliceThickness": 1.1,
    "SliceTiming": [
      0,
      0.735,
      0.0625,
      0.795,
      0.1225,
      0.8575,
      0.185,
      0.9175,
      0.245,
      0.98,
      0.3075,
      1.04,
      0.3675,
      1.1,
      0.43,
      1.1625,
      0.49,
      1.2225,
      0.55,
      1.285,
      0.6125,
      1.345,
      0.6725,
      0,
      0.735,
      0.0625,
      0.795,
      0.1225,
      0.8575,
      0.185,
      0.9175,
      0.245,
      0.98,
      0.3075,
      1.04,
      0.3675,
      1.1,
      0.43,
      1.1625,
      0.49,
      1.2225,
      0.55,
      1.285,
      0.6125,
      1.345,
      0.6725
    ],
    "SoftwareVersions": "syngo_MR_B17",
    "SpacingBetweenSlices": 1.1,
    "StationName": "MRC18930",
    "TaskName": "auditory",
    "TotalReadoutTime": 0.0511141,
    "TxRefAmp": 240,
    "dataset": "ds001942",
    "dcmmeta_affine": [
      [
        -1.0950508117675781,
        0.02463494800031185,
        0.03033878467977047,
        101.2935791015625
      ],
      [
        -0.027467874810099602,
        0.11535520106554031,
        -1.0935395956039429,
        35.535362243652344
      ],
      [
        0.027671849355101585,
        1.0893772840499878,
        0.1151098757982254,
        -123.33378601074219
      ],
      [
        0.0,
        0.0,
        0.0,
        1.0
      ]
    ],
    "dcmmeta_reorient_transform": [
      [
        0.0,
        -1.0,
        0.0,
        187.0
      ],
      [
        1.0,
        0.0,
        0.0,
        0.0
      ],
      [
        0.0,
        0.0,
        1.0,
        0.0
      ],
      [
        0.0,
        0.0,
        0.0,
        1.0
      ]
    ],
    "dcmmeta_shape": [
      188,
      188,
      46,
      150
    ],
    "dcmmeta_slice_dim": 2,
    "dcmmeta_version": 0.6,
    "global": {
      "const": {
        "AcquisitionMatrix": [
          188,
          0,
          0,
          188
        ],
        "AngioFlag": "N",
        "BitsAllocated": 16,
        "BitsStored": 12,
        "Columns": 1316,
        "EchoNumbers": 1,
        "EchoTime": 20.0,
        "EchoTrainLength": 1,
        "FlipAngle": 80.0,
        "HighBit": 11,
        "ImageOrientationPatient": [
          0.9993667227694,
          0.02506776778243,
          0.02525391929116,
          0.02248237943943,
          0.10527561308265,
          -0.9941889095664
        ],
        "ImagePositionPatient": [
          -737.40308492712,
          -137.65899729473,
          679.18161313505
        ],
        "ImageType": [
          "ORIGINAL",
          "PRIMARY",
          "M",
          "MB",
          "ND",
          "MOSAIC"
        ],
        "ImagedNucleus": "1H",
        "ImagingFrequency": 297.205645,
        "InPlanePhaseEncodingDirection": "COL",
        "LargestImagePixelValue": 4095,
        "MRAcquisitionType": "2D",
        "MagneticFieldStrength": 6.98,
        "Manufacturer": "SIEMENS",
        "ManufacturerModelName": "Investigational_Device_7T",
        "Modality": "MR",
        "NumberOfAverages": 1.0,
        "NumberOfPhaseEncodingSteps": 141,
        "PercentPhaseFieldOfView": 100.0,
        "PercentSampling": 100.0,
        "PerformedProcedureStepStartTime": "115818.375000",
        "PhotometricInterpretation": "MONOCHROME2",
        "PixelBandwidth": 1400.0,
        "PixelRepresentation": 0,
        "PixelSpacing": [
          1.0957447290421,
          1.0957447290421
        ],
        "ProtocolName": "cmrr_mbep2d_bold_AP_run5",
        "RepetitionTime": 2600.0,
        "Rows": 1316,
        "SAR": 0.08859491547215,
        "SamplesPerPixel": 1,
        "ScanOptions": [
          "PFP",
          "FS"
        ],
        "ScanningSequence": "EP",
        "SequenceName": "epfid2d1_188",
        "SequenceVariant": [
          "SK",
          "SS"
        ],
        "SeriesDescription": "cmrr_mbep2d_bold_AP_run5",
        "SeriesNumber": 16,
        "SeriesTime": "130006.593000",
        "SliceLocation": -45.439224808025,
        "SliceThickness": 1.1000000238419,
        "SmallestImagePixelValue": 0,
        "SoftwareVersions": "syngo MR B17",
        "SpacingBetweenSlices": 1.0999998200792,
        "SpecificCharacterSet": "ISO_IR 100",
        "StudyID": "1",
        "StudyTime": "115818.265000",
        "TransmitCoilName": "32Ch_Head_7T",
        "VariableFlipAngleFlag": "N",
        "WindowCenterWidthExplanation": "Algo1",
        "dBdt": 0.0
      },
      "slices": {}
    },
    "modality": "bold",
    "run_id": 5,
    "session_id": "SES03",
    "subject_id": "S02",
    "task_id": "auditory",
    "time": {
      "samples": {
        "AcquisitionNumber": [
          1,
          2,
          3,
          4,
          5,
          6,
          7,
          8,
          9,
          10,
          11,
          12,
          13,
          14,
          15,
          16,
          17,
          18,
          19,
          20,
          21,
          22,
          23,
          24,
          25,
          26,
          27,
          28,
          29,
          30,
          31,
          32,
          33,
          34,
          35,
          36,
          37,
          38,
          39,
          40,
          41,
          42,
          43,
          44,
          45,
          46,
          47,
          48,
          49,
          50,
          51,
          52,
          53,
          54,
          55,
          56,
          57,
          58,
          59,
          60,
          61,
          62,
          63,
          64,
          65,
          66,
          67,
          68,
          69,
          70,
          71,
          72,
          73,
          74,
          75,
          76,
          77,
          78,
          79,
          80,
          81,
          82,
          83,
          84,
          85,
          86,
          87,
          88,
          89,
          90,
          91,
          92,
          93,
          94,
          95,
          96,
          97,
          98,
          99,
          100,
          101,
          102,
          103,
          104,
          105,
          106,
          107,
          108,
          109,
          110,
          111,
          112,
          113,
          114,
          115,
          116,
          117,
          118,
          119,
          120,
          121,
          122,
          123,
          124,
          125,
          126,
          127,
          128,
          129,
          130,
          131,
          132,
          133,
          134,
          135,
          136,
          137,
          138,
          139,
          140,
          141,
          142,
          143,
          144,
          145,
          146,
          147,
          148,
          149,
          150
        ],
        "AcquisitionTime": [
          "125957.292500",
          "125959.905000",
          "130002.515000",
          "130005.125000",
          "130007.735000",
          "130010.345000",
          "130012.957500",
          "130015.567500",
          "130018.177500",
          "130020.787500",
          "130023.397500",
          "130026.007500",
          "130028.620000",
          "130031.230000",
          "130033.840000",
          "130036.450000",
          "130039.060000",
          "130041.670000",
          "130044.282500",
          "130046.892500",
          "130049.502500",
          "130052.112500",
          "130054.722500",
          "130057.335000",
          "130059.945000",
          "130102.555000",
          "130105.165000",
          "130107.775000",
          "130110.385000",
          "130112.997500",
          "130115.607500",
          "130118.217500",
          "130120.827500",
          "130123.437500",
          "130126.047500",
          "130128.660000",
          "130131.270000",
          "130133.880000",
          "130136.490000",
          "130139.100000",
          "130141.712500",
          "130144.322500",
          "130146.932500",
          "130149.542500",
          "130152.152500",
          "130154.762500",
          "130157.375000",
          "130159.985000",
          "130202.595000",
          "130205.205000",
          "130207.815000",
          "130210.425000",
          "130213.037500",
          "130215.647500",
          "130218.257500",
          "130220.867500",
          "130223.477500",
          "130226.090000",
          "130228.700000",
          "130231.310000",
          "130233.920000",
          "130236.530000",
          "130239.140000",
          "130241.752500",
          "130244.362500",
          "130246.972500",
          "130249.582500",
          "130252.192500",
          "130254.802500",
          "130257.415000",
          "130300.025000",
          "130302.635000",
          "130305.245000",
          "130307.855000",
          "130310.467500",
          "130313.077500",
          "130315.687500",
          "130318.297500",
          "130320.907500",
          "130323.517500",
          "130326.130000",
          "130328.740000",
          "130331.350000",
          "130333.960000",
          "130336.570000",
          "130339.180000",
          "130341.792500",
          "130344.402500",
          "130347.012500",
          "130349.622500",
          "130352.232500",
          "130354.845000",
          "130357.455000",
          "130400.065000",
          "130402.675000",
          "130405.285000",
          "130407.895000",
          "130410.507500",
          "130413.117500",
          "130415.727500",
          "130418.337500",
          "130420.947500",
          "130423.557500",
          "130426.170000",
          "130428.780000",
          "130431.390000",
          "130434.000000",
          "130436.610000",
          "130439.222500",
          "130441.832500",
          "130444.442500",
          "130447.052500",
          "130449.662500",
          "130452.272500",
          "130454.885000",
          "130457.495000",
          "130500.105000",
          "130502.715000",
          "130505.325000",
          "130507.937500",
          "130510.547500",
          "130513.157500",
          "130515.767500",
          "130518.377500",
          "130520.987500",
          "130523.600000",
          "130526.210000",
          "130528.820000",
          "130531.430000",
          "130534.040000",
          "130536.650000",
          "130539.262500",
          "130541.872500",
          "130544.482500",
          "130547.092500",
          "130549.702500",
          "130552.315000",
          "130554.925000",
          "130557.535000",
          "130600.145000",
          "130602.755000",
          "130605.365000",
          "130607.977500",
          "130610.587500",
          "130613.197500",
          "130615.807500",
          "130618.417500",
          "130621.027500",
          "130623.640000",
          "130626.250000"
        ],
        "ContentTime": [
          "130006.593000",
          "130007.093000",
          "130007.593000",
          "130009.593000",
          "130012.093000",
          "130015.093000",
          "130017.593000",
          "130020.093000",
          "130022.593000",
          "130025.093000",
          "130028.093000",
          "130030.593000",
          "130033.093000",
          "130035.593000",
          "130038.093000",
          "130041.093000",
          "130043.593000",
          "130046.093000",
          "130048.593000",
          "130051.093000",
          "130054.093000",
          "130056.593000",
          "130059.093000",
          "130101.593000",
          "130104.093000",
          "130107.093000",
          "130109.593000",
          "130112.093000",
          "130114.593000",
          "130117.093000",
          "130120.093000",
          "130122.593000",
          "130125.093000",
          "130127.593000",
          "130130.093000",
          "130133.093000",
          "130135.593000",
          "130138.093000",
          "130140.593000",
          "130143.093000",
          "130146.093000",
          "130148.593000",
          "130151.093000",
          "130153.593000",
          "130156.093000",
          "130159.093000",
          "130201.593000",
          "130204.093000",
          "130206.593000",
          "130209.093000",
          "130212.093000",
          "130214.593000",
          "130217.093000",
          "130219.593000",
          "130222.093000",
          "130225.093000",
          "130227.593000",
          "130230.093000",
          "130232.593000",
          "130235.093000",
          "130238.093000",
          "130240.593000",
          "130243.093000",
          "130245.593000",
          "130248.093000",
          "130251.093000",
          "130253.593000",
          "130256.093000",
          "130258.593000",
          "130301.093000",
          "130304.093000",
          "130306.593000",
          "130309.093000",
          "130311.593000",
          "130314.093000",
          "130317.093000",
          "130319.593000",
          "130322.093000",
          "130324.593000",
          "130327.093000",
          "130330.093000",
          "130332.593000",
          "130335.093000",
          "130337.593000",
          "130340.093000",
          "130343.093000",
          "130345.593000",
          "130348.093000",
          "130350.593000",
          "130353.093000",
          "130356.093000",
          "130358.593000",
          "130401.093000",
          "130403.593000",
          "130406.093000",
          "130409.093000",
          "130411.593000",
          "130414.093000",
          "130416.593000",
          "130419.093000",
          "130422.093000",
          "130424.593000",
          "130427.093000",
          "130429.593000",
          "130432.093000",
          "130435.093000",
          "130437.593000",
          "130440.093000",
          "130442.593000",
          "130445.093000",
          "130448.093000",
          "130450.593000",
          "130453.093000",
          "130455.593000",
          "130458.093000",
          "130501.093000",
          "130503.593000",
          "130506.093000",
          "130508.593000",
          "130511.093000",
          "130514.093000",
          "130516.593000",
          "130519.093000",
          "130521.593000",
          "130524.093000",
          "130527.093000",
          "130529.593000",
          "130532.093000",
          "130534.593000",
          "130537.093000",
          "130540.093000",
          "130542.593000",
          "130545.093000",
          "130547.593000",
          "130550.093000",
          "130553.093000",
          "130555.593000",
          "130558.093000",
          "130600.593000",
          "130603.093000",
          "130606.093000",
          "130608.593000",
          "130611.093000",
          "130613.593000",
          "130616.093000",
          "130619.093000",
          "130621.593000",
          "130624.093000",
          "130626.593000",
          "130634.015000"
        ],
        "InstanceCreationTime": [
          "130006.593000",
          "130007.093000",
          "130007.593000",
          "130009.593000",
          "130012.093000",
          "130015.093000",
          "130017.593000",
          "130020.093000",
          "130022.593000",
          "130025.093000",
          "130028.093000",
          "130030.593000",
          "130033.093000",
          "130035.593000",
          "130038.093000",
          "130041.093000",
          "130043.593000",
          "130046.093000",
          "130048.593000",
          "130051.093000",
          "130054.093000",
          "130056.593000",
          "130059.093000",
          "130101.593000",
          "130104.093000",
          "130107.093000",
          "130109.593000",
          "130112.093000",
          "130114.593000",
          "130117.093000",
          "130120.093000",
          "130122.593000",
          "130125.093000",
          "130127.593000",
          "130130.093000",
          "130133.093000",
          "130135.593000",
          "130138.093000",
          "130140.593000",
          "130143.093000",
          "130146.093000",
          "130148.593000",
          "130151.093000",
          "130153.593000",
          "130156.093000",
          "130159.093000",
          "130201.593000",
          "130204.093000",
          "130206.593000",
          "130209.093000",
          "130212.093000",
          "130214.593000",
          "130217.093000",
          "130219.593000",
          "130222.093000",
          "130225.093000",
          "130227.593000",
          "130230.093000",
          "130232.593000",
          "130235.093000",
          "130238.093000",
          "130240.593000",
          "130243.093000",
          "130245.593000",
          "130248.093000",
          "130251.093000",
          "130253.593000",
          "130256.093000",
          "130258.593000",
          "130301.093000",
          "130304.093000",
          "130306.593000",
          "130309.093000",
          "130311.593000",
          "130314.093000",
          "130317.093000",
          "130319.593000",
          "130322.093000",
          "130324.593000",
          "130327.093000",
          "130330.093000",
          "130332.593000",
          "130335.093000",
          "130337.593000",
          "130340.093000",
          "130343.093000",
          "130345.593000",
          "130348.093000",
          "130350.593000",
          "130353.093000",
          "130356.093000",
          "130358.593000",
          "130401.093000",
          "130403.593000",
          "130406.093000",
          "130409.093000",
          "130411.593000",
          "130414.093000",
          "130416.593000",
          "130419.093000",
          "130422.093000",
          "130424.593000",
          "130427.093000",
          "130429.593000",
          "130432.093000",
          "130435.093000",
          "130437.593000",
          "130440.093000",
          "130442.593000",
          "130445.093000",
          "130448.093000",
          "130450.593000",
          "130453.093000",
          "130455.593000",
          "130458.093000",
          "130501.093000",
          "130503.593000",
          "130506.093000",
          "130508.593000",
          "130511.093000",
          "130514.093000",
          "130516.593000",
          "130519.093000",
          "130521.593000",
          "130524.093000",
          "130527.093000",
          "130529.593000",
          "130532.093000",
          "130534.593000",
          "130537.093000",
          "130540.093000",
          "130542.593000",
          "130545.093000",
          "130547.593000",
          "130550.093000",
          "130553.093000",
          "130555.593000",
          "130558.093000",
          "130600.593000",
          "130603.093000",
          "130606.093000",
          "130608.593000",
          "130611.093000",
          "130613.593000",
          "130616.093000",
          "130619.093000",
          "130621.593000",
          "130624.093000",
          "130626.593000",
          "130634.015000"
        ],
        "InstanceNumber": [
          1,
          2,
          3,
          4,
          5,
          6,
          7,
          8,
          9,
          10,
          11,
          12,
          13,
          14,
          15,
          16,
          17,
          18,
          19,
          20,
          21,
          22,
          23,
          24,
          25,
          26,
          27,
          28,
          29,
          30,
          31,
          32,
          33,
          34,
          35,
          36,
          37,
          38,
          39,
          40,
          41,
          42,
          43,
          44,
          45,
          46,
          47,
          48,
          49,
          50,
          51,
          52,
          53,
          54,
          55,
          56,
          57,
          58,
          59,
          60,
          61,
          62,
          63,
          64,
          65,
          66,
          67,
          68,
          69,
          70,
          71,
          72,
          73,
          74,
          75,
          76,
          77,
          78,
          79,
          80,
          81,
          82,
          83,
          84,
          85,
          86,
          87,
          88,
          89,
          90,
          91,
          92,
          93,
          94,
          95,
          96,
          97,
          98,
          99,
          100,
          101,
          102,
          103,
          104,
          105,
          106,
          107,
          108,
          109,
          110,
          111,
          112,
          113,
          114,
          115,
          116,
          117,
          118,
          119,
          120,
          121,
          122,
          123,
          124,
          125,
          126,
          127,
          128,
          129,
          130,
          131,
          132,
          133,
          134,
          135,
          136,
          137,
          138,
          139,
          140,
          141,
          142,
          143,
          144,
          145,
          146,
          147,
          148,
          149,
          150
        ],
        "WindowCenter": [
          950.0,
          949.0,
          947.0,
          946.0,
          946.0,
          948.0,
          946.0,
          946.0,
          950.0,
          946.0,
          945.0,
          945.0,
          949.0,
          947.0,
          945.0,
          946.0,
          948.0,
          946.0,
          947.0,
          947.0,
          946.0,
          948.0,
          949.0,
          948.0,
          949.0,
          949.0,
          947.0,
          947.0,
          949.0,
          949.0,
          948.0,
          947.0,
          948.0,
          949.0,
          948.0,
          948.0,
          949.0,
          948.0,
          947.0,
          948.0,
          948.0,
          946.0,
          945.0,
          946.0,
          947.0,
          946.0,
          945.0,
          947.0,
          946.0,
          946.0,
          946.0,
          947.0,
          947.0,
          947.0,
          946.0,
          945.0,
          946.0,
          946.0,
          947.0,
          947.0,
          948.0,
          949.0,
          947.0,
          946.0,
          947.0,
          948.0,
          947.0,
          946.0,
          947.0,
          948.0,
          947.0,
          947.0,
          947.0,
          947.0,
          948.0,
          947.0,
          945.0,
          947.0,
          947.0,
          946.0,
          947.0,
          947.0,
          947.0,
          947.0,
          947.0,
          947.0,
          947.0,
          948.0,
          948.0,
          946.0,
          947.0,
          948.0,
          947.0,
          947.0,
          945.0,
          946.0,
          947.0,
          944.0,
          944.0,
          946.0,
          946.0,
          946.0,
          947.0,
          948.0,
          947.0,
          946.0,
          946.0,
          949.0,
          949.0,
          947.0,
          947.0,
          948.0,
          947.0,
          945.0,
          946.0,
          947.0,
          947.0,
          948.0,
          947.0,
          947.0,
          951.0,
          949.0,
          946.0,
          945.0,
          947.0,
          948.0,
          947.0,
          947.0,
          948.0,
          947.0,
          947.0,
          947.0,
          948.0,
          949.0,
          949.0,
          948.0,
          948.0,
          949.0,
          948.0,
          948.0,
          948.0,
          948.0,
          949.0,
          948.0,
          948.0,
          949.0,
          948.0,
          948.0,
          947.0,
          948.0
        ],
        "WindowWidth": [
          2199.0,
          2197.0,
          2190.0,
          2187.0,
          2189.0,
          2193.0,
          2186.0,
          2190.0,
          2201.0,
          2187.0,
          2185.0,
          2184.0,
          2195.0,
          2190.0,
          2184.0,
          2187.0,
          2193.0,
          2190.0,
          2192.0,
          2191.0,
          2190.0,
          2196.0,
          2198.0,
          2195.0,
          2199.0,
          2197.0,
          2190.0,
          2190.0,
          2198.0,
          2196.0,
          2195.0,
          2193.0,
          2194.0,
          2196.0,
          2193.0,
          2194.0,
          2197.0,
          2193.0,
          2191.0,
          2195.0,
          2193.0,
          2188.0,
          2185.0,
          2187.0,
          2190.0,
          2188.0,
          2185.0,
          2193.0,
          2187.0,
          2188.0,
          2187.0,
          2189.0,
          2190.0,
          2191.0,
          2186.0,
          2185.0,
          2187.0,
          2187.0,
          2189.0,
          2190.0,
          2194.0,
          2196.0,
          2188.0,
          2187.0,
          2190.0,
          2195.0,
          2191.0,
          2189.0,
          2192.0,
          2196.0,
          2191.0,
          2190.0,
          2190.0,
          2195.0,
          2196.0,
          2189.0,
          2185.0,
          2192.0,
          2192.0,
          2189.0,
          2193.0,
          2192.0,
          2193.0,
          2192.0,
          2194.0,
          2192.0,
          2193.0,
          2196.0,
          2196.0,
          2187.0,
          2190.0,
          2195.0,
          2193.0,
          2192.0,
          2184.0,
          2190.0,
          2191.0,
          2181.0,
          2183.0,
          2190.0,
          2189.0,
          2189.0,
          2193.0,
          2196.0,
          2192.0,
          2189.0,
          2190.0,
          2198.0,
          2197.0,
          2191.0,
          2191.0,
          2194.0,
          2191.0,
          2185.0,
          2189.0,
          2190.0,
          2193.0,
          2196.0,
          2191.0,
          2193.0,
          2204.0,
          2198.0,
          2187.0,
          2185.0,
          2193.0,
          2195.0,
          2192.0,
          2190.0,
          2193.0,
          2192.0,
          2193.0,
          2191.0,
          2195.0,
          2198.0,
          2196.0,
          2194.0,
          2196.0,
          2196.0,
          2194.0,
          2197.0,
          2195.0,
          2195.0,
          2197.0,
          2195.0,
          2196.0,
          2198.0,
          2195.0,
          2194.0,
          2192.0,
          2193.0
        ]
      },
      "slices": {}
    }
  },
  "dummy_trs": 0,
  "dvars_nstd": 76.21239763295301,
  "dvars_std": 1.0567364196644298,
  "dvars_vstd": 1.0305107678523493,
  "efc": 0.5869165762785451,
  "fber": 213.82159423828125,
  "fd_mean": 0.06640649642694213,
  "fd_num": 3,
  "fd_perc": 2.0,
  "fwhm_avg": 3.101543985808553,
  "fwhm_x": 2.971750548913686,
  "fwhm_y": 2.967808024815234,
  "fwhm_z": 3.365073383696739,
  "gcor": 0.00166965,
  "gsr_x": 0.052675481885671616,
  "gsr_y": 0.009500403888523579,
  "provenance": {
    "md5sum": "41074b95bd43b09de278d12f35651fd3",
    "settings": {
      "fd_thres": 0.2,
      "testing": false
    },
    "software": "mriqc",
    "version": "22.0.6",
    "webapi_port": null,
    "webapi_url": "https://mriqc.nimh.nih.gov/api/v1"
  },
  "size_t": 150,
  "size_x": 188,
  "size_y": 188,
  "size_z": 46,
  "snr": 1.941153701383605,
  "spacing_tr": 2.5999999046325684,
  "spacing_x": 1.0957447290420532,
  "spacing_y": 1.0957447290420532,
  "spacing_z": 1.0999997854232788,
  "summary_bg_k": 42.84359609547319,
  "summary_bg_mad": 39.23953947053875,
  "summary_bg_mean": 121.31581115722656,
  "summary_bg_median": 67.28666687011719,
  "summary_bg_n": 1016812.0,
  "summary_bg_p05": 34.333335876464844,
  "summary_bg_p95": 355.2260025024408,
