{
  "aor": 0.0007639999999999999,
  "aqi": 0.012367053999999999,
  "bids_meta": {
    "AcquisitionMatrixPE": 188,
    "AcquisitionNumber": 1,
    "AcquisitionTime": "13:25:18.252500",
    "BandwidthPerPixelPhaseEncode": 19.46,
    "BaseResolution": 188,
    "CogAtlasID": "TODO",
    "ConversionSoftware": "dcm2niix",
    "ConversionSoftwareVersion": "v1.0.20180606 GCC4.8.5",
    "DelayTime": 1.2,
    "DerivedVendorReportedEchoSpacing": 0.000820013,
    "DeviceSerialNumber": "18930",
    "DwellTime": 1.9e-06,
    "EchoTime": 0.02,
    "EffectiveEchoSpacing": 0.000273338,
    "FlipAngle": 80,
    "ImageComments": "Unaliased_MB2_PE2",
    "ImageOrientationPatientDICOM": [
      0.999367,
      0.0250678,
      0.0252539,
      0.0224824,
      0.105276,
      -0.994189
    ],
    "ImageType": [
      "ORIGINAL",
      "PRIMARY",
      "M",
      "MB",
      "ND",
      "MOSAIC"
    ],
    "InPlanePhaseEncodingDirectionDICOM": "COL",
    "InstitutionAddress": "Oxfordlaan_55_Maastricht_22AAA2_Limburg_NL_6229_EV",
    "InstitutionName": "Scannexus",
    "InstitutionalDepartmentName": "MRI_7T",
    "MRAcquisitionType": "2D",
    "MagneticFieldStrength": 6.98,
    "Manufacturer": "Siemens",
    "ManufacturersModelName": "Investigational_Device_7T",
    "Modality": "MR",
    "MultibandAccelerationFactor": 2,
    "ParallelReductionFactorInPlane": 3,
    "PartialFourier": 0.75,
    "PatientPosition": "HFS",
    "PercentPhaseFOV": 100,
    "PhaseEncodingDirection": "j",
    "PhaseEncodingSteps": 141,
    "PhaseResolution": 1,
    "PixelBandwidth": 1400,
    "ProcedureStepDescription": "FeDem_Faruk",
    "ProtocolName": "cmrr_mbep2d_bold_AP_run8",
    "PulseSequenceDetails": "%CustomerSeq%_cmrr_mbep2d_bold",
    "ReceiveCoilName": "32Ch_Head_7T",
    "ReconMatrixPE": 188,
    "RepetitionTime": 2.6,
    "SAR": 0.0885271,
    "ScanOptions": "PFP_FS",
    "ScanningSequence": "EP",
    "SequenceName": "epfid2d1_188",
    "SequenceVariant": "SK_SS",
    "SeriesDescription": "cmrr_mbep2d_bold_AP_run8",
    "SeriesNumber": 21,
    "ShimSetting": [
      150,
      -120,
      519,
      382,
      159,
      49,
      -160,
      140
    ],
    "SliceThickness": 1.1,
    "SliceTiming": [
      0,
      0.7325,
      0.0625,
      0.795,
      0.1225,
      0.855,
      0.1825,
      0.9175,
      0.245,
      0.9775,
      0.305,
      1.04,
      0.3675,
      1.1,
      0.4275,
      1.1625,
      0.49,
      1.2225,
      0.55,
      1.2825,
      0.6125,
      1.345,
      0.6725,
      0,
      0.7325,
      0.0625,
      0.795,
      0.1225,
      0.855,
      0.1825,
      0.9175,
      0.245,
      0.9775,
      0.305,
      1.04,
      0.3675,
      1.1,
      0.4275,
      1.1625,
      0.49,
      1.2225,
      0.55,
      1.2825,
      0.6125,
      1.345,
      0.6725
    ],
    "SoftwareVersions": "syngo_MR_B17",
    "SpacingBetweenSlices": 1.1,
    "StationName": "MRC18930",
    "TaskName": "auditory",
    "TotalReadoutTime": 0.0511141,
    "TxRefAmp": 240,
    "dataset": "ds001942",
    "dcmmeta_affine": [
      [
        -1.0950508117675781,
        0.02463494800031185,
        0.03033878467977047,
        101.2935791015625
      ],
      [
        -0.027467874810099602,
        0.11535520106554031,
        -1.0935395956039429,
        35.535362243652344
      ],
      [
        0.027671849355101585,
        1.0893772840499878,
        0.1151098757982254,
        -123.33378601074219
      ],
      [
        0.0,
        0.0,
        0.0,
        1.0
      ]
    ],
    "dcmmeta_reorient_transform": [
      [
        0.0,
        -1.0,
        0.0,
        187.0
      ],
      [
        1.0,
        0.0,
        0.0,
        0.0
      ],
      [
        0.0,
        0.0,
        1.0,
        0.0
      ],
      [
        0.0,
        0.0,
        0.0,
        1.0
      ]
    ],
    "dcmmeta_shape": [
      188,
      188,
      46,
      150
    ],
    "dcmmeta_slice_dim": 2,
    "dcmmeta_version": 0.6,
    "global": {
      "const": {
        "AcquisitionMatrix": [
          188,
          0,
          0,
          188
        ],
        "AngioFlag": "N",
        "BitsAllocated": 16,
        "BitsStored": 12,
        "Columns": 1316,
        "EchoNumbers": 1,
        "EchoTime": 20.0,
        "EchoTrainLength": 1,
        "FlipAngle": 80.0,
        "HighBit": 11,
        "ImageOrientationPatient": [
          0.9993667227694,
          0.02506776778243,
          0.02525391929116,
          0.02248237943943,
          0.10527561308265,
          -0.9941889095664
        ],
        "ImagePositionPatient": [
          -737.40308492712,
          -137.65899729473,
          679.18161313505
        ],
        "ImageType": [
          "ORIGINAL",
          "PRIMARY",
          "M",
          "MB",
          "ND",
          "MOSAIC"
        ],
        "ImagedNucleus": "1H",
        "ImagingFrequency": 297.205653,
        "InPlanePhaseEncodingDirection": "COL",
        "LargestImagePixelValue": 4095,
        "MRAcquisitionType": "2D",
        "MagneticFieldStrength": 6.98,
        "Manufacturer": "SIEMENS",
        "ManufacturerModelName": "Investigational_Device_7T",
        "Modality": "MR",
        "NumberOfAverages": 1.0,
        "NumberOfPhaseEncodingSteps": 141,
        "PercentPhaseFieldOfView": 100.0,
        "PercentSampling": 100.0,
        "PerformedProcedureStepStartTime": "115818.375000",
        "PhotometricInterpretation": "MONOCHROME2",
        "PixelBandwidth": 1400.0,
        "PixelRepresentation": 0,
        "PixelSpacing": [
          1.0957447290421,
          1.0957447290421
        ],
        "ProtocolName": "cmrr_mbep2d_bold_AP_run8",
        "RepetitionTime": 2600.0,
        "Rows": 1316,
        "SAR": 0.08852708202649,
        "SamplesPerPixel": 1,
        "ScanOptions": [
          "PFP",
          "FS"
        ],
        "ScanningSequence": "EP",
        "SequenceName": "epfid2d1_188",
        "SequenceVariant": [
          "SK",
          "SS"
        ],
        "SeriesDescription": "cmrr_mbep2d_bold_AP_run8",
        "SeriesNumber": 21,
        "SeriesTime": "132527.578000",
        "SliceLocation": -45.439224808025,
        "SliceThickness": 1.1000000238419,
        "SmallestImagePixelValue": 0,
        "SoftwareVersions": "syngo MR B17",
        "SpacingBetweenSlices": 1.0999998200792,
        "SpecificCharacterSet": "ISO_IR 100",
        "StudyID": "1",
        "StudyTime": "115818.265000",
        "TransmitCoilName": "32Ch_Head_7T",
        "VariableFlipAngleFlag": "N",
        "WindowCenterWidthExplanation": "Algo1",
        "dBdt": 0.0
      },
      "slices": {}
    },
    "modality": "bold",
    "run_id": 8,
    "session_id": "SES03",
    "subject_id": "S02",
    "task_id": "auditory",
    "time": {
      "samples": {
        "AcquisitionNumber": [
          1,
          2,
          3,
          4,
          5,
          6,
          7,
          8,
          9,
          10,
          11,
          12,
          13,
          14,
          15,
          16,
          17,
          18,
          19,
          20,
          21,
          22,
          23,
          24,
          25,
          26,
          27,
          28,
          29,
          30,
          31,
          32,
          33,
          34,
          35,
          36,
          37,
          38,
          39,
          40,
          41,
          42,
          43,
          44,
          45,
          46,
          47,
          48,
          49,
          50,
          51,
          52,
          53,
          54,
          55,
          56,
          57,
          58,
          59,
          60,
          61,
          62,
          63,
          64,
          65,
          66,
          67,
          68,
          69,
          70,
          71,
          72,
          73,
          74,
          75,
          76,
          77,
          78,
          79,
          80,
          81,
          82,
          83,
          84,
          85,
          86,
          87,
          88,
          89,
          90,
          91,
          92,
          93,
          94,
          95,
          96,
          97,
          98,
          99,
          100,
          101,
          102,
          103,
          104,
          105,
          106,
          107,
          108,
          109,
          110,
          111,
          112,
          113,
          114,
          115,
          116,
          117,
          118,
          119,
          120,
          121,
          122,
          123,
          124,
          125,
          126,
          127,
          128,
          129,
          130,
          131,
          132,
          133,
          134,
          135,
          136,
          137,
          138,
          139,
          140,
          141,
          142,
          143,
          144,
          145,
          146,
          147,
          148,
          149,
          150
        ],
        "AcquisitionTime": [
          "132518.252500",
          "132520.862500",
          "132523.472500",
          "132526.085000",
          "132528.695000",
          "132531.305000",
          "132533.915000",
          "132536.525000",
          "132539.137500",
          "132541.747500",
          "132544.357500",
          "132546.967500",
          "132549.577500",
          "132552.187500",
          "132554.800000",
          "132557.410000",
          "132600.020000",
          "132602.630000",
          "132605.240000",
          "132607.850000",
          "132610.462500",
          "132613.072500",
          "132615.682500",
          "132618.292500",
          "132620.902500",
          "132623.515000",
          "132626.125000",
          "132628.735000",
          "132631.345000",
          "132633.955000",
          "132636.565000",
          "132639.177500",
          "132641.787500",
          "132644.397500",
          "132647.007500",
          "132649.617500",
          "132652.227500",
          "132654.840000",
          "132657.450000",
          "132700.060000",
          "132702.670000",
          "132705.280000",
          "132707.892500",
          "132710.502500",
          "132713.112500",
          "132715.722500",
          "132718.332500",
          "132720.942500",
          "132723.555000",
          "132726.165000",
          "132728.775000",
          "132731.385000",
          "132733.995000",
          "132736.605000",
          "132739.217500",
          "132741.827500",
          "132744.437500",
          "132747.047500",
          "132749.657500",
          "132752.270000",
          "132754.880000",
          "132757.490000",
          "132800.100000",
          "132802.710000",
          "132805.320000",
          "132807.932500",
          "132810.542500",
          "132813.152500",
          "132815.762500",
          "132818.372500",
          "132820.982500",
          "132823.595000",
          "132826.205000",
          "132828.815000",
          "132831.425000",
          "132834.035000",
          "132836.647500",
          "132839.257500",
          "132841.867500",
          "132844.477500",
          "132847.087500",
          "132849.697500",
          "132852.310000",
          "132854.920000",
          "132857.530000",
          "132900.140000",
          "132902.750000",
          "132905.362500",
          "132907.972500",
          "132910.582500",
          "132913.192500",
          "132915.802500",
          "132918.412500",
          "132921.025000",
          "132923.635000",
          "132926.245000",
          "132928.855000",
          "132931.465000",
          "132934.075000",
          "132936.687500",
          "132939.297500",
          "132941.907500",
          "132944.517500",
          "132947.127500",
          "132949.740000",
          "132952.350000",
          "132954.960000",
          "132957.570000",
          "133000.180000",
          "133002.790000",
          "133005.402500",
          "133008.012500",
          "133010.622500",
          "133013.232500",
          "133015.842500",
          "133018.452500",
          "133021.065000",
          "133023.675000",
          "133026.285000",
          "133028.895000",
          "133031.505000",
          "133034.117500",
          "133036.727500",
          "133039.337500",
          "133041.947500",
          "133044.557500",
          "133047.167500",
          "133049.780000",
          "133052.390000",
          "133055.000000",
          "133057.610000",
          "133100.220000",
          "133102.830000",
          "133105.442500",
          "133108.052500",
          "133110.662500",
          "133113.272500",
          "133115.882500",
          "133118.495000",
          "133121.105000",
          "133123.715000",
          "133126.325000",
          "133128.935000",
          "133131.545000",
          "133134.157500",
          "133136.767500",
          "133139.377500",
          "133141.987500",
          "133144.597500",
          "133147.207500"
        ],
        "ContentTime": [
          "132527.578000",
          "132527.578000",
          "132528.578000",
          "132530.578000",
          "132533.078000",
          "132536.078000",
          "132538.578000",
          "132541.078000",
          "132543.578000",
          "132546.078000",
          "132549.078000",
          "132551.578000",
          "132554.078000",
          "132556.578000",
          "132559.078000",
          "132602.078000",
          "132604.578000",
          "132607.078000",
          "132609.578000",
          "132612.078000",
          "132614.578000",
          "132617.578000",
          "132620.078000",
          "132622.578000",
          "132625.078000",
          "132628.078000",
          "132630.578000",
          "132633.078000",
          "132635.578000",
          "132638.078000",
          "132641.078000",
          "132643.578000",
          "132646.078000",
          "132648.578000",
          "132651.078000",
          "132654.078000",
          "132656.578000",
          "132659.078000",
          "132701.578000",
          "132704.078000",
          "132707.078000",
          "132709.578000",
          "132712.078000",
          "132714.578000",
          "132717.078000",
          "132720.078000",
          "132722.578000",
          "132725.078000",
          "132727.578000",
          "132730.078000",
          "132733.078000",
          "132735.578000",
          "132738.078000",
          "132740.578000",
          "132743.078000",
          "132746.078000",
          "132748.578000",
          "132751.078000",
          "132753.578000",
          "132756.078000",
          "132759.078000",
          "132801.578000",
          "132804.078000",
          "132806.578000",
          "132809.078000",
          "132812.078000",
          "132814.578000",
          "132817.078000",
          "132819.578000",
          "132822.078000",
          "132824.578000",
          "132827.578000",
          "132830.078000",
          "132832.578000",
          "132835.078000",
          "132838.078000",
          "132840.578000",
          "132843.078000",
          "132845.578000",
          "132848.078000",
          "132850.578000",
          "132853.578000",
          "132856.078000",
          "132858.578000",
          "132901.078000",
          "132904.078000",
          "132906.578000",
          "132909.078000",
          "132911.578000",
          "132914.078000",
          "132916.578000",
          "132919.578000",
          "132922.078000",
          "132924.578000",
          "132927.078000",
          "132930.078000",
          "132932.578000",
          "132935.078000",
          "132937.578000",
          "132940.078000",
          "132943.078000",
          "132945.578000",
          "132948.078000",
          "132950.578000",
          "132953.078000",
          "132955.578000",
          "132958.578000",
          "133001.078000",
          "133003.578000",
          "133006.078000",
          "133009.078000",
          "133011.578000",
          "133014.078000",
          "133016.578000",
          "133019.078000",
          "133022.078000",
          "133024.578000",
          "133027.078000",
          "133029.578000",
          "133032.078000",
          "133034.578000",
          "133037.578000",
          "133040.078000",
          "133042.578000",
          "133045.078000",
          "133048.078000",
          "133050.578000",
          "133053.078000",
          "133055.578000",
          "133058.078000",
          "133101.078000",
          "133103.578000",
          "133106.078000",
          "133108.578000",
          "133111.078000",
          "133113.578000",
          "133116.578000",
          "133119.078000",
          "133121.578000",
          "133124.078000",
          "133127.078000",
          "133129.578000",
          "133132.078000",
          "133134.578000",
          "133137.078000",
          "133140.078000",
          "133142.578000",
          "133145.078000",
          "133147.578000",
          "133154.953000"
        ],
        "InstanceCreationTime": [
          "132527.578000",
          "132527.578000",
          "132528.578000",
          "132530.578000",
          "132533.078000",
          "132536.078000",
          "132538.578000",
          "132541.078000",
          "132543.578000",
          "132546.078000",
          "132549.078000",
          "132551.578000",
          "132554.078000",
          "132556.578000",
          "132559.078000",
          "132602.078000",
          "132604.578000",
          "132607.078000",
          "132609.578000",
          "132612.078000",
          "132614.578000",
          "132617.578000",
          "132620.078000",
          "132622.578000",
          "132625.078000",
          "132628.078000",
          "132630.578000",
          "132633.078000",
          "132635.578000",
          "132638.078000",
          "132641.078000",
          "132643.578000",
          "132646.078000",
          "132648.578000",
          "132651.078000",
          "132654.078000",
          "132656.578000",
          "132659.078000",
          "132701.578000",
          "132704.078000",
          "132707.078000",
          "132709.578000",
          "132712.078000",
          "132714.578000",
          "132717.078000",
          "132720.078000",
          "132722.578000",
          "132725.078000",
          "132727.578000",
          "132730.078000",
          "132733.078000",
          "132735.578000",
          "132738.078000",
          "132740.578000",
          "132743.078000",
          "132746.078000",
          "132748.578000",
          "132751.078000",
          "132753.578000",
          "132756.078000",
          "132759.078000",
          "132801.578000",
          "132804.078000",
          "132806.578000",
          "132809.078000",
          "132812.078000",
          "132814.578000",
          "132817.078000",
          "132819.578000",
          "132822.078000",
          "132824.578000",
          "132827.578000",
          "132830.078000",
          "132832.578000",
          "132835.078000",
          "132838.078000",
          "132840.578000",
          "132843.078000",
          "132845.578000",
          "132848.078000",
          "132850.578000",
          "132853.578000",
          "132856.078000",
          "132858.578000",
          "132901.078000",
          "132904.078000",
          "132906.578000",
          "132909.078000",
          "132911.578000",
          "132914.078000",
          "132916.578000",
          "132919.578000",
          "132922.078000",
          "132924.578000",
          "132927.078000",
          "132930.078000",
          "132932.578000",
          "132935.078000",
          "132937.578000",
          "132940.078000",
          "132943.078000",
          "132945.578000",
          "132948.078000",
          "132950.578000",
          "132953.078000",
          "132955.578000",
          "132958.578000",
          "133001.078000",
          "133003.578000",
          "133006.078000",
          "133009.078000",
          "133011.578000",
          "133014.078000",
          "133016.578000",
          "133019.078000",
          "133022.078000",
          "133024.578000",
          "133027.078000",
          "133029.578000",
          "133032.078000",
          "133034.578000",
          "133037.578000",
          "133040.078000",
          "133042.578000",
          "133045.078000",
          "133048.078000",
          "133050.578000",
          "133053.078000",
          "133055.578000",
          "133058.078000",
          "133101.078000",
          "133103.578000",
          "133106.078000",
          "133108.578000",
          "133111.078000",
          "133113.578000",
          "133116.578000",
          "133119.078000",
          "133121.578000",
          "133124.078000",
          "133127.078000",
          "133129.578000",
          "133132.078000",
          "133134.578000",
          "133137.078000",
          "133140.078000",
          "133142.578000",
          "133145.078000",
          "133147.578000",
          "133154.953000"
        ],
        "InstanceNumber": [
          1,
          2,
          3,
          4,
          5,
          6,
          7,
          8,
          9,
          10,
          11,
          12,
          13,
          14,
          15,
          16,
          17,
          18,
          19,
          20,
          21,
          22,
          23,
          24,
          25,
          26,
          27,
          28,
          29,
          30,
          31,
          32,
          33,
          34,
          35,
          36,
          37,
          38,
          39,
          40,
          41,
          42,
          43,
          44,
          45,
          46,
          47,
          48,
          49,
          50,
          51,
          52,
          53,
          54,
          55,
          56,
          57,
          58,
          59,
          60,
          61,
          62,
          63,
          64,
          65,
          66,
          67,
          68,
          69,
          70,
          71,
          72,
          73,
          74,
          75,
          76,
          77,
          78,
          79,
          80,
          81,
          82,
          83,
          84,
          85,
          86,
          87,
          88,
          89,
          90,
          91,
          92,
          93,
          94,
          95,
          96,
          97,
          98,
          99,
          100,
          101,
          102,
          103,
          104,
          105,
          106,
          107,
          108,
          109,
          110,
          111,
          112,
          113,
          114,
          115,
          116,
          117,
          118,
          119,
          120,
          121,
          122,
          123,
          124,
          125,
          126,
          127,
          128,
          129,
          130,
          131,
          132,
          133,
          134,
          135,
          136,
          137,
          138,
          139,
          140,
          141,
          142,
          143,
          144,
          145,
          146,
          147,
          148,
          149,
          150
        ],
        "WindowCenter": [
          952.0,
          950.0,
          951.0,
          950.0,
          949.0,
          950.0,
          951.0,
          949.0,
          949.0,
          951.0,
          950.0,
          948.0,
          948.0,
          948.0,
          950.0,
          949.0,
          948.0,
          947.0,
          949.0,
          948.0,
          948.0,
          949.0,
          949.0,
          948.0,
          947.0,
          947.0,
          948.0,
          948.0,
          948.0,
          949.0,
          948.0,
          947.0,
          948.0,
          951.0,
          950.0,
          947.0,
          945.0,
          947.0,
          948.0,
          948.0,
          949.0,
          949.0,
          948.0,
          947.0,
          947.0,
          948.0,
          948.0,
          947.0,
          948.0,
          950.0,
          948.0,
          947.0,
          948.0,
          949.0,
          947.0,
          947.0,
          947.0,
          949.0,
          949.0,
          948.0,
          949.0,
          949.0,
          948.0,
          948.0,
          948.0,
          949.0,
          950.0,
          949.0,
          949.0,
          948.0,
          950.0,
          949.0,
          947.0,
          948.0,
          949.0,
          948.0,
          949.0,
          947.0,
          948.0,
          947.0,
          949.0,
          947.0,
          947.0,
          950.0,
          948.0,
          946.0,
          947.0,
          947.0,
          946.0,
          946.0,
          945.0,
          948.0,
          946.0,
          946.0,
          947.0,
          947.0,
          949.0,
          946.0,
          947.0,
          948.0,
          946.0,
          944.0,
          945.0,
          948.0,
          948.0,
          947.0,
          948.0,
          949.0,
          949.0,
          949.0,
          950.0,
          950.0,
          949.0,
          950.0,
          948.0,
          948.0,
          944.0,
          944.0,
          944.0,
          943.0,
          945.0,
          944.0,
          946.0,
          945.0,
          946.0,
          946.0,
          947.0,
          947.0,
          948.0,
          948.0,
          949.0,
          949.0,
          949.0,
          949.0,
          949.0,
          949.0,
          949.0,
          948.0,
          949.0,
          950.0,
          949.0,
          949.0,
          949.0,
          951.0,
          950.0,
          949.0,
          948.0,
          949.0,
          948.0,
          949.0
        ],
        "WindowWidth": [
          2203.0,
          2197.0,
          2200.0,
          2196.0,
          2194.0,
          2198.0,
          2201.0,
          2196.0,
          2195.0,
          2202.0,
          2197.0,
          2193.0,
          2191.0,
          2193.0,
          2198.0,
          2196.0,
          2190.0,
          2190.0,
          2195.0,
          2191.0,
          2193.0,
          2197.0,
          2195.0,
          2192.0,
          2190.0,
          2191.0,
          2193.0,
          2190.0,
          2191.0,
          2195.0,
          2192.0,
          2189.0,
          2193.0,
          2201.0,
          2200.0,
          2187.0,
          2183.0,
          2189.0,
          2193.0,
          2191.0,
          2195.0,
          2195.0,
          2193.0,
          2190.0,
          2189.0,
          2193.0,
          2192.0,
          2188.0,
          2194.0,
          2197.0,
          2192.0,
          2188.0,
          2192.0,
          2193.0,
          2188.0,
          2189.0,
          2189.0,
          2194.0,
          2193.0,
          2193.0,
          2193.0,
          2195.0,
          2191.0,
          2193.0,
          2191.0,
          2194.0,
          2200.0,
          2193.0,
          2194.0,
          2194.0,
          2198.0,
          2193.0,
          2187.0,
          2194.0,
          2195.0,
          2192.0,
          2194.0,
          2187.0,
          2191.0,
          2192.0,
          2194.0,
          2189.0,
          2190.0,
          2199.0,
          2193.0,
          2186.0,
          2188.0,
          2188.0,
          2187.0,
          2185.0,
          2182.0,
          2192.0,
          2186.0,
          2186.0,
          2189.0,
          2190.0,
          2194.0,
          2187.0,
          2189.0,
          2190.0,
          2184.0,
          2180.0,
          2183.0,
          2192.0,
          2192.0,
          2190.0,
          2195.0,
          2194.0,
          2194.0,
          2197.0,
          2198.0,
          2198.0,
          2198.0,
          2200.0,
          2192.0,
          2190.0,
          2179.0,
          2180.0,
          2178.0,
          2177.0,
          2182.0,
          2180.0,
          2187.0,
          2184.0,
          2185.0,
          2184.0,
          2187.0,
          2188.0,
          2193.0,
          2191.0,
          2196.0,
          2194.0,
          2197.0,
          2193.0,
          2194.0,
          2196.0,
          2194.0,
          2193.0,
          2197.0,
          2198.0,
          2196.0,
          2196.0,
          2196.0,
          2201.0,
          2199.0,
          2195.0,
          2192.0,
          2193.0,
          2192.0,
          2194.0
        ]
      },
      "slices": {}
    }
  },
  "dummy_trs": 0,
  "dvars_nstd": 79.00545583671139,
  "dvars_std": 1.0632470401342282,
  "dvars_vstd": 1.0235135257718126,
  "efc": 0.5875895188048789,
  "fber": 209.3103790283203,
  "fd_mean": 0.10539653518037728,
  "fd_num": 18,
  "fd_perc": 12.0,
  "fwhm_avg": 3.093075747847553,
  "fwhm_x": 2.9522113264720526,
  "fwhm_y": 2.9696788985193607,
  "fwhm_z": 3.357337018551245,
  "gcor": 0.00290049,
  "gsr_x": 0.05151773616671562,
  "gsr_y": 0.011534858494997025,
  "provenance": {
    "md5sum": "554290a5e75bc961b0d178115483e4fc",
    "settings": {
      "fd_thres": 0.2,
      "testing": false
    },
    "software": "mriqc",
    "version": "22.0.6",
    "webapi_port": null,
    "webapi_url": "https://mriqc.nimh.nih.gov/api/v1"
  },
  "size_t": 150,
  "size_x": 188,
  "size_y": 188,
  "size_z": 46,
  "snr": 1.9438951308334653,
  "spacing_tr": 2.5999999046325684,
  "spacing_x": 1.0957447290420532,
  "spacing_y": 1.0957447290420532,
  "spacing_z": 1.0999997854232788,
  "summary_bg_k": 41.79776439399637,
  "summary_bg_mad": 39.88200194007214,
  "summary_bg_mean": 122.6791000366211,
  "summary_bg_median": 68.1866683959961,
  "summary_bg_n": 1018938.0,
  "summary_bg_p05": 34.63333511352539,
