{
  "aor": 0.0009003333333333334,
  "aqi": 0.012512623333333334,
  "bids_meta": {
    "AcquisitionMatrixPE": 188,
    "AcquisitionNumber": 1,
    "AcquisitionTime": "12:44:44.117500",
    "BandwidthPerPixelPhaseEncode": 19.46,
    "BaseResolution": 188,
    "CogAtlasID": "TODO",
    "ConversionSoftware": "dcm2niix",
    "ConversionSoftwareVersion": "v1.0.20180606 GCC4.8.5",
    "DelayTime": 1.2,
    "DerivedVendorReportedEchoSpacing": 0.000820013,
    "DeviceSerialNumber": "18930",
    "DwellTime": 1.9e-06,
    "EchoTime": 0.02,
    "EffectiveEchoSpacing": 0.000273338,
    "FlipAngle": 80,
    "ImageComments": "Unaliased_MB2_PE2",
    "ImageOrientationPatientDICOM": [
      0.999367,
      0.0250678,
      0.0252539,
      0.0224824,
      0.105276,
      -0.994189
    ],
    "ImageType": [
      "ORIGINAL",
      "PRIMARY",
      "M",
      "MB",
      "ND",
      "MOSAIC"
    ],
    "InPlanePhaseEncodingDirectionDICOM": "COL",
    "InstitutionAddress": "Oxfordlaan_55_Maastricht_22AAA2_Limburg_NL_6229_EV",
    "InstitutionName": "Scannexus",
    "InstitutionalDepartmentName": "MRI_7T",
    "MRAcquisitionType": "2D",
    "MagneticFieldStrength": 6.98,
    "Manufacturer": "Siemens",
    "ManufacturersModelName": "Investigational_Device_7T",
    "Modality": "MR",
    "MultibandAccelerationFactor": 2,
    "ParallelReductionFactorInPlane": 3,
    "PartialFourier": 0.75,
    "PatientPosition": "HFS",
    "PercentPhaseFOV": 100,
    "PhaseEncodingDirection": "j",
    "PhaseEncodingSteps": 141,
    "PhaseResolution": 1,
    "PixelBandwidth": 1400,
    "ProcedureStepDescription": "FeDem_Faruk",
    "ProtocolName": "cmrr_mbep2d_bold_AP_run3",
    "PulseSequenceDetails": "%CustomerSeq%_cmrr_mbep2d_bold",
    "ReceiveCoilName": "32Ch_Head_7T",
    "ReconMatrixPE": 188,
    "RepetitionTime": 2.6,
    "SAR": 0.0888395,
    "ScanOptions": "PFP_FS",
    "ScanningSequence": "EP",
    "SequenceName": "epfid2d1_188",
    "SequenceVariant": "SK_SS",
    "SeriesDescription": "cmrr_mbep2d_bold_AP_run3",
    "SeriesNumber": 14,
    "ShimSetting": [
      150,
      -120,
      519,
      382,
      159,
      49,
      -160,
      140
    ],
    "SliceThickness": 1.1,
    "SliceTiming": [
      0,
      0.7325,
      0.06,
      0.795,
      0.1225,
      0.855,
      0.1825,
      0.9175,
      0.245,
      0.9775,
      0.305,
      1.0375,
      0.3675,
      1.1,
      0.4275,
      1.16,
      0.4875,
      1.2225,
      0.55,
      1.2825,
      0.61,
      1.345,
      0.6725,
      0,
      0.7325,
      0.06,
      0.795,
      0.1225,
      0.855,
      0.1825,
      0.9175,
      0.245,
      0.9775,
      0.305,
      1.0375,
      0.3675,
      1.1,
      0.4275,
      1.16,
      0.4875,
      1.2225,
      0.55,
      1.2825,
      0.61,
      1.345,
      0.6725
    ],
    "SoftwareVersions": "syngo_MR_B17",
    "SpacingBetweenSlices": 1.1,
    "StationName": "MRC18930",
    "TaskName": "auditory",
    "TotalReadoutTime": 0.0511141,
    "TxRefAmp": 240,
    "dataset": "ds001942",
    "dcmmeta_affine": [
      [
        -1.0950508117675781,
        0.02463494800031185,
        0.03033878467977047,
        101.2935791015625
      ],
      [
        -0.027467874810099602,
        0.11535520106554031,
        -1.0935395956039429,
        35.535362243652344
      ],
      [
        0.027671849355101585,
        1.0893772840499878,
        0.1151098757982254,
        -123.33378601074219
      ],
      [
        0.0,
        0.0,
        0.0,
        1.0
      ]
    ],
    "dcmmeta_reorient_transform": [
      [
        0.0,
        -1.0,
        0.0,
        187.0
      ],
      [
        1.0,
        0.0,
        0.0,
        0.0
      ],
      [
        0.0,
        0.0,
        1.0,
        0.0
      ],
      [
        0.0,
        0.0,
        0.0,
        1.0
      ]
    ],
    "dcmmeta_shape": [
      188,
      188,
      46,
      150
    ],
    "dcmmeta_slice_dim": 2,
    "dcmmeta_version": 0.6,
    "global": {
      "const": {
        "AcquisitionMatrix": [
          188,
          0,
          0,
          188
        ],
        "AngioFlag": "N",
        "BitsAllocated": 16,
        "BitsStored": 12,
        "Columns": 1316,
        "EchoNumbers": 1,
        "EchoTime": 20.0,
        "EchoTrainLength": 1,
        "FlipAngle": 80.0,
        "HighBit": 11,
        "ImageOrientationPatient": [
          0.9993667227694,
          0.02506776778243,
          0.02525391929116,
          0.02248237943943,
          0.10527561308265,
          -0.9941889095664
        ],
        "ImagePositionPatient": [
          -737.40308492712,
          -137.65899729473,
          679.18161313505
        ],
        "ImageType": [
          "ORIGINAL",
          "PRIMARY",
          "M",
          "MB",
          "ND",
          "MOSAIC"
        ],
        "ImagedNucleus": "1H",
        "ImagingFrequency": 297.20564,
        "InPlanePhaseEncodingDirection": "COL",
        "LargestImagePixelValue": 4095,
        "MRAcquisitionType": "2D",
        "MagneticFieldStrength": 6.98,
        "Manufacturer": "SIEMENS",
        "ManufacturerModelName": "Investigational_Device_7T",
        "Modality": "MR",
        "NumberOfAverages": 1.0,
        "NumberOfPhaseEncodingSteps": 141,
        "PercentPhaseFieldOfView": 100.0,
        "PercentSampling": 100.0,
        "PerformedProcedureStepStartTime": "115818.375000",
        "PhotometricInterpretation": "MONOCHROME2",
        "PixelBandwidth": 1400.0,
        "PixelRepresentation": 0,
        "PixelSpacing": [
          1.0957447290421,
          1.0957447290421
        ],
        "ProtocolName": "cmrr_mbep2d_bold_AP_run3",
        "RepetitionTime": 2600.0,
        "Rows": 1316,
        "SAR": 0.08883952613851,
        "SamplesPerPixel": 1,
        "ScanOptions": [
          "PFP",
          "FS"
        ],
        "ScanningSequence": "EP",
        "SequenceName": "epfid2d1_188",
        "SequenceVariant": [
          "SK",
          "SS"
        ],
        "SeriesDescription": "cmrr_mbep2d_bold_AP_run3",
        "SeriesNumber": 14,
        "SeriesTime": "124452.671000",
        "SliceLocation": -45.439224808025,
        "SliceThickness": 1.1000000238419,
        "SmallestImagePixelValue": 0,
        "SoftwareVersions": "syngo MR B17",
        "SpacingBetweenSlices": 1.0999998200792,
        "SpecificCharacterSet": "ISO_IR 100",
        "StudyID": "1",
        "StudyTime": "115818.265000",
        "TransmitCoilName": "32Ch_Head_7T",
        "VariableFlipAngleFlag": "N",
        "WindowCenterWidthExplanation": "Algo1",
        "dBdt": 0.0
      },
      "slices": {}
    },
    "modality": "bold",
    "run_id": 3,
    "session_id": "SES03",
    "subject_id": "S02",
    "task_id": "auditory",
    "time": {
      "samples": {
        "AcquisitionNumber": [
          1,
          2,
          3,
          4,
          5,
          6,
          7,
          8,
          9,
          10,
          11,
          12,
          13,
          14,
          15,
          16,
          17,
          18,
          19,
          20,
          21,
          22,
          23,
          24,
          25,
          26,
          27,
          28,
          29,
          30,
          31,
          32,
          33,
          34,
          35,
          36,
          37,
          38,
          39,
          40,
          41,
          42,
          43,
          44,
          45,
          46,
          47,
          48,
          49,
          50,
          51,
          52,
          53,
          54,
          55,
          56,
          57,
          58,
          59,
          60,
          61,
          62,
          63,
          64,
          65,
          66,
          67,
          68,
          69,
          70,
          71,
          72,
          73,
          74,
          75,
          76,
          77,
          78,
          79,
          80,
          81,
          82,
          83,
          84,
          85,
          86,
          87,
          88,
          89,
          90,
          91,
          92,
          93,
          94,
          95,
          96,
          97,
          98,
          99,
          100,
          101,
          102,
          103,
          104,
          105,
          106,
          107,
          108,
          109,
          110,
          111,
          112,
          113,
          114,
          115,
          116,
          117,
          118,
          119,
          120,
          121,
          122,
          123,
          124,
          125,
          126,
          127,
          128,
          129,
          130,
          131,
          132,
          133,
          134,
          135,
          136,
          137,
          138,
          139,
          140,
          141,
          142,
          143,
          144,
          145,
          146,
          147,
          148,
          149,
          150
        ],
        "AcquisitionTime": [
          "124444.117500",
          "124446.727500",
          "124449.337500",
          "124451.947500",
          "124454.560000",
          "124457.170000",
          "124459.780000",
          "124502.390000",
          "124505.000000",
          "124507.612500",
          "124510.222500",
          "124512.832500",
          "124515.442500",
          "124518.052500",
          "124520.662500",
          "124523.275000",
          "124525.885000",
          "124528.495000",
          "124531.105000",
          "124533.715000",
          "124536.325000",
          "124538.937500",
          "124541.547500",
          "124544.157500",
          "124546.767500",
          "124549.377500",
          "124551.990000",
          "124554.600000",
          "124557.210000",
          "124559.820000",
          "124602.430000",
          "124605.040000",
          "124607.652500",
          "124610.262500",
          "124612.872500",
          "124615.482500",
          "124618.092500",
          "124620.702500",
          "124623.315000",
          "124625.925000",
          "124628.535000",
          "124631.145000",
          "124633.755000",
          "124636.367500",
          "124638.977500",
          "124641.587500",
          "124644.197500",
          "124646.807500",
          "124649.417500",
          "124652.030000",
          "124654.640000",
          "124657.250000",
          "124659.860000",
          "124702.470000",
          "124705.080000",
          "124707.692500",
          "124710.302500",
          "124712.912500",
          "124715.522500",
          "124718.132500",
          "124720.745000",
          "124723.355000",
          "124725.965000",
          "124728.575000",
          "124731.185000",
          "124733.795000",
          "124736.407500",
          "124739.017500",
          "124741.627500",
          "124744.237500",
          "124746.847500",
          "124749.457500",
          "124752.070000",
          "124754.680000",
          "124757.290000",
          "124759.900000",
          "124802.510000",
          "124805.122500",
          "124807.732500",
          "124810.342500",
          "124812.952500",
          "124815.562500",
          "124818.172500",
          "124820.785000",
          "124823.395000",
          "124826.005000",
          "124828.615000",
          "124831.225000",
          "124833.835000",
          "124836.447500",
          "124839.057500",
          "124841.667500",
          "124844.277500",
          "124846.887500",
          "124849.500000",
          "124852.110000",
          "124854.720000",
          "124857.330000",
          "124859.940000",
          "124902.550000",
          "124905.162500",
          "124907.772500",
          "124910.382500",
          "124912.992500",
          "124915.602500",
          "124918.212500",
          "124920.825000",
          "124923.435000",
          "124926.045000",
          "124928.655000",
          "124931.265000",
          "124933.877500",
          "124936.487500",
          "124939.097500",
          "124941.707500",
          "124944.317500",
          "124946.927500",
          "124949.540000",
          "124952.150000",
          "124954.760000",
          "124957.370000",
          "124959.980000",
          "125002.590000",
          "125005.202500",
          "125007.812500",
          "125010.422500",
          "125013.032500",
          "125015.642500",
          "125018.255000",
          "125020.865000",
          "125023.475000",
          "125026.085000",
          "125028.695000",
          "125031.305000",
          "125033.917500",
          "125036.527500",
          "125039.137500",
          "125041.747500",
          "125044.357500",
          "125046.967500",
          "125049.580000",
          "125052.190000",
          "125054.800000",
          "125057.410000",
          "125100.020000",
          "125102.632500",
          "125105.242500",
          "125107.852500",
          "125110.462500",
          "125113.072500"
        ],
        "ContentTime": [
          "124452.671000",
          "124453.171000",
          "124453.671000",
          "124456.171000",
          "124458.671000",
          "124501.171000",
          "124504.171000",
          "124506.671000",
          "124509.171000",
          "124511.671000",
          "124514.171000",
          "124517.171000",
          "124519.671000",
          "124522.171000",
          "124524.671000",
          "124527.171000",
          "124530.171000",
          "124532.671000",
          "124535.171000",
          "124537.671000",
          "124540.671000",
          "124543.171000",
          "124545.671000",
          "124548.171000",
          "124550.671000",
          "124553.171000",
          "124556.171000",
          "124558.671000",
          "124601.171000",
          "124603.671000",
          "124606.171000",
          "124609.171000",
          "124611.671000",
          "124614.171000",
          "124616.671000",
          "124619.171000",
          "124622.171000",
          "124624.671000",
          "124627.171000",
          "124629.671000",
          "124632.171000",
          "124635.171000",
          "124637.671000",
          "124640.171000",
          "124642.671000",
          "124645.171000",
          "124648.171000",
          "124650.671000",
          "124653.171000",
          "124655.671000",
          "124658.671000",
          "124701.171000",
          "124703.671000",
          "124706.171000",
          "124708.671000",
          "124711.171000",
          "124714.171000",
          "124716.671000",
          "124719.171000",
          "124721.671000",
          "124724.171000",
          "124727.171000",
          "124729.671000",
          "124732.171000",
          "124734.671000",
          "124737.171000",
          "124740.171000",
          "124742.671000",
          "124745.171000",
          "124747.671000",
          "124750.171000",
          "124753.171000",
          "124755.671000",
          "124758.171000",
          "124800.671000",
          "124803.171000",
          "124806.171000",
          "124808.671000",
          "124811.171000",
          "124813.671000",
          "124816.171000",
          "124819.171000",
          "124821.671000",
          "124824.171000",
          "124826.671000",
          "124829.171000",
          "124832.171000",
          "124834.671000",
          "124837.171000",
          "124839.671000",
          "124842.171000",
          "124845.171000",
          "124847.671000",
          "124850.171000",
          "124852.671000",
          "124855.171000",
          "124858.171000",
          "124900.671000",
          "124903.171000",
          "124905.671000",
          "124908.171000",
          "124911.171000",
          "124913.671000",
          "124916.171000",
          "124918.671000",
          "124921.171000",
          "124924.171000",
          "124926.671000",
          "124929.171000",
          "124931.671000",
          "124934.171000",
          "124937.171000",
          "124939.671000",
          "124942.171000",
          "124944.671000",
          "124947.171000",
          "124950.171000",
          "124952.671000",
          "124955.171000",
          "124957.671000",
          "125000.171000",
          "125003.171000",
          "125005.671000",
          "125008.171000",
          "125010.671000",
          "125013.171000",
          "125016.171000",
          "125018.671000",
          "125021.171000",
          "125023.671000",
          "125026.171000",
          "125029.171000",
          "125031.671000",
          "125034.171000",
          "125036.671000",
          "125039.171000",
          "125042.171000",
          "125044.671000",
          "125047.171000",
          "125049.671000",
          "125052.171000",
          "125055.171000",
          "125057.671000",
          "125100.171000",
          "125102.671000",
          "125105.171000",
          "125108.171000",
          "125110.671000",
          "125113.171000",
          "125120.531000"
        ],
        "InstanceCreationTime": [
          "124452.671000",
          "124453.171000",
          "124453.671000",
          "124456.171000",
          "124458.671000",
          "124501.171000",
          "124504.171000",
          "124506.671000",
          "124509.171000",
          "124511.671000",
          "124514.171000",
          "124517.171000",
          "124519.671000",
          "124522.171000",
          "124524.671000",
          "124527.171000",
          "124530.171000",
          "124532.671000",
          "124535.171000",
          "124537.671000",
          "124540.671000",
          "124543.171000",
          "124545.671000",
          "124548.171000",
          "124550.671000",
          "124553.171000",
          "124556.171000",
          "124558.671000",
          "124601.171000",
          "124603.671000",
          "124606.171000",
          "124609.171000",
          "124611.671000",
          "124614.171000",
          "124616.671000",
          "124619.171000",
          "124622.171000",
          "124624.671000",
          "124627.171000",
          "124629.671000",
          "124632.171000",
          "124635.171000",
          "124637.671000",
          "124640.171000",
          "124642.671000",
          "124645.171000",
          "124648.171000",
          "124650.671000",
          "124653.171000",
          "124655.671000",
          "124658.671000",
          "124701.171000",
          "124703.671000",
          "124706.171000",
          "124708.671000",
          "124711.171000",
          "124714.171000",
          "124716.671000",
          "124719.171000",
          "124721.671000",
          "124724.171000",
          "124727.171000",
          "124729.671000",
          "124732.171000",
          "124734.671000",
          "124737.171000",
          "124740.171000",
          "124742.671000",
          "124745.171000",
          "124747.671000",
          "124750.171000",
          "124753.171000",
          "124755.671000",
          "124758.171000",
          "124800.671000",
          "124803.171000",
          "124806.171000",
          "124808.671000",
          "124811.171000",
          "124813.671000",
          "124816.171000",
          "124819.171000",
          "124821.671000",
          "124824.171000",
          "124826.671000",
          "124829.171000",
          "124832.171000",
          "124834.671000",
          "124837.171000",
          "124839.671000",
          "124842.171000",
          "124845.171000",
          "124847.671000",
          "124850.171000",
          "124852.671000",
          "124855.171000",
          "124858.171000",
          "124900.671000",
          "124903.171000",
          "124905.671000",
          "124908.171000",
          "124911.171000",
          "124913.671000",
          "124916.171000",
          "124918.671000",
          "124921.171000",
          "124924.171000",
          "124926.671000",
          "124929.171000",
          "124931.671000",
          "124934.171000",
          "124937.171000",
          "124939.671000",
          "124942.171000",
          "124944.671000",
          "124947.171000",
          "124950.171000",
          "124952.671000",
          "124955.171000",
          "124957.671000",
          "125000.171000",
          "125003.171000",
          "125005.671000",
          "125008.171000",
          "125010.671000",
          "125013.171000",
          "125016.171000",
          "125018.671000",
          "125021.171000",
          "125023.671000",
          "125026.171000",
          "125029.171000",
          "125031.671000",
          "125034.171000",
          "125036.671000",
          "125039.171000",
          "125042.171000",
          "125044.671000",
          "125047.171000",
          "125049.671000",
          "125052.171000",
          "125055.171000",
          "125057.671000",
          "125100.171000",
          "125102.671000",
          "125105.171000",
          "125108.171000",
          "125110.671000",
          "125113.171000",
          "125120.531000"
        ],
        "InstanceNumber": [
          1,
          2,
          3,
          4,
          5,
          6,
          7,
          8,
          9,
          10,
          11,
          12,
          13,
          14,
          15,
          16,
          17,
          18,
          19,
          20,
          21,
          22,
          23,
          24,
          25,
          26,
          27,
          28,
          29,
          30,
          31,
          32,
          33,
          34,
          35,
          36,
          37,
          38,
          39,
          40,
          41,
          42,
          43,
          44,
          45,
          46,
          47,
          48,
          49,
          50,
          51,
          52,
          53,
          54,
          55,
          56,
          57,
          58,
          59,
          60,
          61,
          62,
          63,
          64,
          65,
          66,
          67,
          68,
          69,
          70,
          71,
          72,
          73,
          74,
          75,
          76,
          77,
          78,
          79,
          80,
          81,
          82,
          83,
          84,
          85,
          86,
          87,
          88,
          89,
          90,
          91,
          92,
          93,
          94,
          95,
          96,
          97,
          98,
          99,
          100,
          101,
          102,
          103,
          104,
          105,
          106,
          107,
          108,
          109,
          110,
          111,
          112,
          113,
          114,
          115,
          116,
          117,
          118,
          119,
          120,
          121,
          122,
          123,
          124,
          125,
          126,
          127,
          128,
          129,
          130,
          131,
          132,
          133,
          134,
          135,
          136,
          137,
          138,
          139,
          140,
          141,
          142,
          143,
          144,
          145,
          146,
          147,
          148,
          149,
          150
        ],
        "WindowCenter": [
          952.0,
          949.0,
          949.0,
          947.0,
          948.0,
          950.0,
          948.0,
          948.0,
          948.0,
          950.0,
          948.0,
          948.0,
          950.0,
          948.0,
          947.0,
          948.0,
          948.0,
          948.0,
          947.0,
          947.0,
          949.0,
          949.0,
          946.0,
          945.0,
          947.0,
          947.0,
          947.0,
          948.0,
          948.0,
          947.0,
          947.0,
          949.0,
          949.0,
          948.0,
          948.0,
          949.0,
          949.0,
          948.0,
          947.0,
          946.0,
          947.0,
          949.0,
          948.0,
          947.0,
          948.0,
          949.0,
          949.0,
          948.0,
          950.0,
          948.0,
          947.0,
          948.0,
          950.0,
          948.0,
          948.0,
          948.0,
          946.0,
          947.0,
          946.0,
          945.0,
          946.0,
          947.0,
          949.0,
          949.0,
          948.0,
          949.0,
          950.0,
          950.0,
          948.0,
          948.0,
          948.0,
          949.0,
          948.0,
          949.0,
          950.0,
          949.0,
          946.0,
          947.0,
          949.0,
          950.0,
          950.0,
          949.0,
          947.0,
          948.0,
          950.0,
          948.0,
          948.0,
          949.0,
          948.0,
          949.0,
          949.0,
          948.0,
          949.0,
          951.0,
          948.0,
          947.0,
          948.0,
          948.0,
          948.0,
          947.0,
          948.0,
          949.0,
          951.0,
          951.0,
          947.0,
          947.0,
          947.0,
          948.0,
          947.0,
          947.0,
          948.0,
          948.0,
          948.0,
          951.0,
          950.0,
          948.0,
          950.0,
          951.0,
          951.0,
          950.0,
          950.0,
          951.0,
          951.0,
          949.0,
          946.0,
          945.0,
          947.0,
          947.0,
          946.0,
          949.0,
          950.0,
          949.0,
          948.0,
          948.0,
          951.0,
          950.0,
          948.0,
          948.0,
          949.0,
          947.0,
          946.0,
          945.0,
          945.0,
          947.0,
          948.0,
          947.0,
          947.0,
          951.0,
          951.0,
          952.0
        ],
        "WindowWidth": [
          2205.0,
          2199.0,
          2199.0,
          2191.0,
          2193.0,
          2199.0,
          2194.0,
          2193.0,
          2194.0,
          2200.0,
          2194.0,
          2194.0,
          2201.0,
          2193.0,
          2191.0,
          2194.0,
          2195.0,
          2193.0,
          2191.0,
          2192.0,
          2196.0,
          2195.0,
          2187.0,
          2185.0,
          2191.0,
          2190.0,
          2190.0,
          2196.0,
          2195.0,
          2192.0,
          2193.0,
          2198.0,
          2197.0,
          2196.0,
          2195.0,
          2197.0,
          2196.0,
          2195.0,
          2191.0,
          2189.0,
          2193.0,
          2199.0,
          2194.0,
          2192.0,
          2194.0,
          2198.0,
          2197.0,
          2196.0,
          2199.0,
          2196.0,
          2191.0,
          2196.0,
          2200.0,
          2193.0,
          2195.0,
          2194.0,
          2188.0,
          2192.0,
          2186.0,
          2184.0,
          2188.0,
          2193.0,
          2196.0,
          2197.0,
          2196.0,
          2197.0,
          2200.0,
          2200.0,
          2196.0,
          2194.0,
          2196.0,
          2198.0,
          2194.0,
          2198.0,
          2203.0,
          2196.0,
          2187.0,
          2192.0,
          2198.0,
          2200.0,
          2202.0,
          2196.0,
          2191.0,
          2195.0,
          2202.0,
          2195.0,
          2194.0,
          2198.0,
          2195.0,
          2199.0,
          2196.0,
          2193.0,
          2200.0,
          2202.0,
          2194.0,
          2192.0,
          2194.0,
          2195.0,
          2195.0,
          2194.0,
          2196.0,
          2200.0,
          2204.0,
          2204.0,
          2191.0,
          2191.0,
          2192.0,
          2191.0,
          2190.0,
          2190.0,
          2193.0,
          2195.0,
          2194.0,
          2204.0,
          2201.0,
          2195.0,
          2202.0,
          2205.0,
          2204.0,
          2203.0,
          2202.0,
          2204.0,
          2207.0,
          2197.0,
          2190.0,
          2185.0,
          2192.0,
          2190.0,
          2188.0,
          2198.0,
          2202.0,
          2197.0,
          2193.0,
          2195.0,
          2204.0,
          2199.0,
          2196.0,
          2195.0,
          2199.0,
          2190.0,
          2188.0,
          2184.0,
          2184.0,
          2190.0,
          2195.0,
          2192.0,
          2193.0,
          2206.0,
          2204.0,
          2208.0
        ]
      },
      "slices": {}
    }
  },
  "dummy_trs": 0,
  "dvars_nstd": 77.67164898516779,
  "dvars_std": 1.0662399402013423,
  "dvars_vstd": 1.0236306640939594,
  "efc": 0.5867881034852397,
  "fber": 211.3920440673828,
  "fd_mean": 0.06967309072246144,
  "fd_num": 3,
  "fd_perc": 2.0,
  "fwhm_avg": 3.104966315755126,
  "fwhm_x": 2.975510548748321,
  "fwhm_y": 2.974315014820318,
  "fwhm_z": 3.365073383696739,
  "gcor": 0.003034,
  "gsr_x": 0.05242927744984627,
  "gsr_y": 0.01023001130670309,
  "provenance": {
    "md5sum": "48ab9291322b6ed2aad671e564401d8c",
    "settings": {
      "fd_thres": 0.2,
      "testing": false
    },
    "software": "mriqc",
    "version": "22.0.6",
    "webapi_port": null,
    "webapi_url": "https://mriqc.nimh.nih.gov/api/v1"
  },
  "size_t": 150,
  "size_x": 188,
  "size_y": 188,
  "size_z": 46,
  "snr": 1.9399763094785132,
  "spacing_tr": 2.5999999046325684,
  "spacing_x": 1.0957447290420532,
  "spacing_y": 1.0957447290420532,
  "spacing_z": 1.0999997854232788,
  "summary_bg_k": 43.25154308935812,
  "summary_bg_mad": 39.51628879288881,
  "summary_bg_mean": 121.67164611816406,
  "summary_bg_median": 67.88666534423828,
  "summary_bg_n": 1017907.0,
  "summary_bg_p05": 34.59333419799805,
  "summary_bg_p95": 353.7200012207031,
