{
  "aor": 0.0007834899328859061,
  "aqi": 0.011687476510067114,
  "bids_meta": {
    "AcquisitionMatrixPE": 188,
    "AcquisitionNumber": 1,
    "AcquisitionTime": "13:48:9.242500",
    "BandwidthPerPixelPhaseEncode": 19.46,
    "BaseResolution": 188,
    "CogAtlasID": "TODO",
    "ConversionSoftware": "dcm2niix",
    "ConversionSoftwareVersion": "v1.0.20180606 GCC4.8.5",
    "DelayTime": 1.2,
    "DerivedVendorReportedEchoSpacing": 0.000820013,
    "DeviceSerialNumber": "18930",
    "DwellTime": 1.9e-06,
    "EchoTime": 0.02,
    "EffectiveEchoSpacing": 0.000273338,
    "FlipAngle": 80,
    "ImageComments": "Unaliased_MB2_PE2",
    "ImageOrientationPatientDICOM": [
      0.999367,
      0.0250678,
      0.0252539,
      0.0224824,
      0.105276,
      -0.994189
    ],
    "ImageType": [
      "ORIGINAL",
      "PRIMARY",
      "M",
      "MB",
      "ND",
      "MOSAIC"
    ],
    "InPlanePhaseEncodingDirectionDICOM": "COL",
    "InstitutionAddress": "Oxfordlaan_55_Maastricht_22AAA2_Limburg_NL_6229_EV",
    "InstitutionName": "Scannexus",
    "InstitutionalDepartmentName": "MRI_7T",
    "MRAcquisitionType": "2D",
    "MagneticFieldStrength": 6.98,
    "Manufacturer": "Siemens",
    "ManufacturersModelName": "Investigational_Device_7T",
    "Modality": "MR",
    "MultibandAccelerationFactor": 2,
    "ParallelReductionFactorInPlane": 3,
    "PartialFourier": 0.75,
    "PatientPosition": "HFS",
    "PercentPhaseFOV": 100,
    "PhaseEncodingDirection": "j",
    "PhaseEncodingSteps": 141,
    "PhaseResolution": 1,
    "PixelBandwidth": 1400,
    "ProcedureStepDescription": "FeDem_Faruk",
    "ProtocolName": "cmrr_mbep2d_bold_AP_run11",
    "PulseSequenceDetails": "%CustomerSeq%_cmrr_mbep2d_bold",
    "ReceiveCoilName": "32Ch_Head_7T",
    "ReconMatrixPE": 188,
    "RepetitionTime": 2.6,
    "SAR": 0.0887262,
    "ScanOptions": "PFP_FS",
    "ScanningSequence": "EP",
    "SequenceName": "epfid2d1_188",
    "SequenceVariant": "SK_SS",
    "SeriesDescription": "cmrr_mbep2d_bold_AP_run11",
    "SeriesNumber": 24,
    "ShimSetting": [
      150,
      -120,
      519,
      382,
      159,
      49,
      -160,
      140
    ],
    "SliceThickness": 1.1,
    "SliceTiming": [
      0,
      0.7325,
      0.06,
      0.795,
      0.1225,
      0.855,
      0.1825,
      0.9175,
      0.245,
      0.9775,
      0.305,
      1.0375,
      0.3675,
      1.1,
      0.4275,
      1.16,
      0.4875,
      1.2225,
      0.55,
      1.2825,
      0.61,
      1.345,
      0.6725,
      0,
      0.7325,
      0.06,
      0.795,
      0.1225,
      0.855,
      0.1825,
      0.9175,
      0.245,
      0.9775,
      0.305,
      1.0375,
      0.3675,
      1.1,
      0.4275,
      1.16,
      0.4875,
      1.2225,
      0.55,
      1.2825,
      0.61,
      1.345,
      0.6725
    ],
    "SoftwareVersions": "syngo_MR_B17",
    "SpacingBetweenSlices": 1.1,
    "StationName": "MRC18930",
    "TaskName": "auditory",
    "TotalReadoutTime": 0.0511141,
    "TxRefAmp": 240,
    "dataset": "ds001942",
    "dcmmeta_affine": [
      [
        -1.0950508117675781,
        0.02463494800031185,
        0.03033878467977047,
        101.2935791015625
      ],
      [
        -0.027467874810099602,
        0.11535520106554031,
        -1.0935395956039429,
        35.535362243652344
      ],
      [
        0.027671849355101585,
        1.0893772840499878,
        0.1151098757982254,
        -123.33378601074219
      ],
      [
        0.0,
        0.0,
        0.0,
        1.0
      ]
    ],
    "dcmmeta_reorient_transform": [
      [
        0.0,
        -1.0,
        0.0,
        187.0
      ],
      [
        1.0,
        0.0,
        0.0,
        0.0
      ],
      [
        0.0,
        0.0,
        1.0,
        0.0
      ],
      [
        0.0,
        0.0,
        0.0,
        1.0
      ]
    ],
    "dcmmeta_shape": [
      188,
      188,
      46,
      150
    ],
    "dcmmeta_slice_dim": 2,
    "dcmmeta_version": 0.6,
    "global": {
      "const": {
        "AcquisitionMatrix": [
          188,
          0,
          0,
          188
        ],
        "AngioFlag": "N",
        "BitsAllocated": 16,
        "BitsStored": 12,
        "Columns": 1316,
        "EchoNumbers": 1,
        "EchoTime": 20.0,
        "EchoTrainLength": 1,
        "FlipAngle": 80.0,
        "HighBit": 11,
        "ImageOrientationPatient": [
          0.9993667227694,
          0.02506776778243,
          0.02525391929116,
          0.02248237943943,
          0.10527561308265,
          -0.9941889095664
        ],
        "ImagePositionPatient": [
          -737.40308492712,
          -137.65899729473,
          679.18161313505
        ],
        "ImageType": [
          "ORIGINAL",
          "PRIMARY",
          "M",
          "MB",
          "ND",
          "MOSAIC"
        ],
        "ImagedNucleus": "1H",
        "ImagingFrequency": 297.205658,
        "InPlanePhaseEncodingDirection": "COL",
        "LargestImagePixelValue": 4095,
        "MRAcquisitionType": "2D",
        "MagneticFieldStrength": 6.98,
        "Manufacturer": "SIEMENS",
        "ManufacturerModelName": "Investigational_Device_7T",
        "Modality": "MR",
        "NumberOfAverages": 1.0,
        "NumberOfPhaseEncodingSteps": 141,
        "PercentPhaseFieldOfView": 100.0,
        "PercentSampling": 100.0,
        "PerformedProcedureStepStartTime": "115818.375000",
        "PhotometricInterpretation": "MONOCHROME2",
        "PixelBandwidth": 1400.0,
        "PixelRepresentation": 0,
        "PixelSpacing": [
          1.0957447290421,
          1.0957447290421
        ],
        "ProtocolName": "cmrr_mbep2d_bold_AP_run11",
        "RepetitionTime": 2600.0,
        "Rows": 1316,
        "SAR": 0.08872618621909,
        "SamplesPerPixel": 1,
        "ScanOptions": [
          "PFP",
          "FS"
        ],
        "ScanningSequence": "EP",
        "SequenceName": "epfid2d1_188",
        "SequenceVariant": [
          "SK",
          "SS"
        ],
        "SeriesDescription": "cmrr_mbep2d_bold_AP_run11",
        "SeriesNumber": 24,
        "SeriesTime": "134818.578000",
        "SliceLocation": -45.439224808025,
        "SliceThickness": 1.1000000238419,
        "SmallestImagePixelValue": 0,
        "SoftwareVersions": "syngo MR B17",
        "SpacingBetweenSlices": 1.0999998200792,
        "SpecificCharacterSet": "ISO_IR 100",
        "StudyID": "1",
        "StudyTime": "115818.265000",
        "TransmitCoilName": "32Ch_Head_7T",
        "VariableFlipAngleFlag": "N",
        "WindowCenterWidthExplanation": "Algo1",
        "dBdt": 0.0
      },
      "slices": {}
    },
    "modality": "bold",
    "run_id": 11,
    "session_id": "SES03",
    "subject_id": "S02",
    "task_id": "auditory",
    "time": {
      "samples": {
        "AcquisitionNumber": [
          1,
          2,
          3,
          4,
          5,
          6,
          7,
          8,
          9,
          10,
          11,
          12,
          13,
          14,
          15,
          16,
          17,
          18,
          19,
          20,
          21,
          22,
          23,
          24,
          25,
          26,
          27,
          28,
          29,
          30,
          31,
          32,
          33,
          34,
          35,
          36,
          37,
          38,
          39,
          40,
          41,
          42,
          43,
          44,
          45,
          46,
          47,
          48,
          49,
          50,
          51,
          52,
          53,
          54,
          55,
          56,
          57,
          58,
          59,
          60,
          61,
          62,
          63,
          64,
          65,
          66,
          67,
          68,
          69,
          70,
          71,
          72,
          73,
          74,
          75,
          76,
          77,
          78,
          79,
          80,
          81,
          82,
          83,
          84,
          85,
          86,
          87,
          88,
          89,
          90,
          91,
          92,
          93,
          94,
          95,
          96,
          97,
          98,
          99,
          100,
          101,
          102,
          103,
          104,
          105,
          106,
          107,
          108,
          109,
          110,
          111,
          112,
          113,
          114,
          115,
          116,
          117,
          118,
          119,
          120,
          121,
          122,
          123,
          124,
          125,
          126,
          127,
          128,
          129,
          130,
          131,
          132,
          133,
          134,
          135,
          136,
          137,
          138,
          139,
          140,
          141,
          142,
          143,
          144,
          145,
          146,
          147,
          148,
          149,
          150
        ],
        "AcquisitionTime": [
          "134809.242500",
          "134811.852500",
          "134814.462500",
          "134817.072500",
          "134819.685000",
          "134822.295000",
          "134824.905000",
          "134827.515000",
          "134830.125000",
          "134832.737500",
          "134835.347500",
          "134837.957500",
          "134840.567500",
          "134843.177500",
          "134845.787500",
          "134848.400000",
          "134851.010000",
          "134853.620000",
          "134856.230000",
          "134858.840000",
          "134901.450000",
          "134904.062500",
          "134906.672500",
          "134909.282500",
          "134911.892500",
          "134914.502500",
          "134917.115000",
          "134919.725000",
          "134922.335000",
          "134924.945000",
          "134927.555000",
          "134930.165000",
          "134932.777500",
          "134935.387500",
          "134937.997500",
          "134940.607500",
          "134943.217500",
          "134945.827500",
          "134948.440000",
          "134951.050000",
          "134953.660000",
          "134956.270000",
          "134958.880000",
          "135001.492500",
          "135004.102500",
          "135006.712500",
          "135009.322500",
          "135011.932500",
          "135014.542500",
          "135017.155000",
          "135019.765000",
          "135022.375000",
          "135024.985000",
          "135027.595000",
          "135030.205000",
          "135032.817500",
          "135035.427500",
          "135038.037500",
          "135040.647500",
          "135043.257500",
          "135045.870000",
          "135048.480000",
          "135051.090000",
          "135053.700000",
          "135056.310000",
          "135058.920000",
          "135101.532500",
          "135104.142500",
          "135106.752500",
          "135109.362500",
          "135111.972500",
          "135114.582500",
          "135117.195000",
          "135119.805000",
          "135122.415000",
          "135125.025000",
          "135127.635000",
          "135130.247500",
          "135132.857500",
          "135135.467500",
          "135138.077500",
          "135140.687500",
          "135143.297500",
          "135145.910000",
          "135148.520000",
          "135151.130000",
          "135153.740000",
          "135156.350000",
          "135158.960000",
          "135201.572500",
          "135204.182500",
          "135206.792500",
          "135209.402500",
          "135212.012500",
          "135214.625000",
          "135217.235000",
          "135219.845000",
          "135222.455000",
          "135225.065000",
          "135227.675000",
          "135230.287500",
          "135232.897500",
          "135235.507500",
          "135238.117500",
          "135240.727500",
          "135243.337500",
          "135245.950000",
          "135248.560000",
          "135251.170000",
          "135253.780000",
          "135256.390000",
          "135259.002500",
          "135301.612500",
          "135304.222500",
          "135306.832500",
          "135309.442500",
          "135312.052500",
          "135314.665000",
          "135317.275000",
          "135319.885000",
          "135322.495000",
          "135325.105000",
          "135327.717500",
          "135330.327500",
          "135332.937500",
          "135335.547500",
          "135338.157500",
          "135340.767500",
          "135343.380000",
          "135345.990000",
          "135348.600000",
          "135351.210000",
          "135353.820000",
          "135356.430000",
          "135359.042500",
          "135401.652500",
          "135404.262500",
          "135406.872500",
          "135409.482500",
          "135412.095000",
          "135414.705000",
          "135417.315000",
          "135419.925000",
          "135422.535000",
          "135425.145000",
          "135427.757500",
          "135430.367500",
          "135432.977500",
          "135435.587500",
          "135438.197500"
        ],
        "ContentTime": [
          "134818.578000",
          "134818.593000",
          "134819.578000",
          "134821.578000",
          "134824.078000",
          "134826.578000",
          "134829.578000",
          "134832.078000",
          "134834.578000",
          "134837.078000",
          "134840.078000",
          "134842.578000",
          "134845.078000",
          "134847.578000",
          "134850.078000",
          "134852.578000",
          "134855.578000",
          "134858.078000",
          "134900.578000",
          "134903.078000",
          "134906.078000",
          "134908.578000",
          "134911.078000",
          "134913.578000",
          "134916.078000",
          "134918.578000",
          "134921.578000",
          "134924.078000",
          "134926.578000",
          "134929.078000",
          "134931.578000",
          "134934.578000",
          "134937.078000",
          "134939.578000",
          "134942.078000",
          "134944.578000",
          "134947.578000",
          "134950.078000",
          "134952.578000",
          "134955.078000",
          "134958.078000",
          "135000.578000",
          "135003.078000",
          "135005.578000",
          "135008.078000",
          "135010.578000",
          "135013.578000",
          "135016.078000",
          "135018.578000",
          "135021.078000",
          "135024.078000",
          "135026.578000",
          "135029.078000",
          "135031.578000",
          "135034.078000",
          "135036.578000",
          "135039.578000",
          "135042.078000",
          "135044.578000",
          "135047.078000",
          "135049.578000",
          "135052.578000",
          "135055.078000",
          "135057.578000",
          "135100.078000",
          "135102.578000",
          "135105.578000",
          "135108.078000",
          "135110.578000",
          "135113.078000",
          "135115.578000",
          "135118.578000",
          "135121.078000",
          "135123.578000",
          "135126.078000",
          "135129.078000",
          "135131.578000",
          "135134.078000",
          "135136.578000",
          "135139.078000",
          "135141.578000",
          "135144.578000",
          "135147.078000",
          "135149.578000",
          "135152.078000",
          "135154.578000",
          "135157.578000",
          "135200.078000",
          "135202.578000",
          "135205.078000",
          "135207.578000",
          "135210.578000",
          "135213.078000",
          "135215.578000",
          "135218.078000",
          "135220.578000",
          "135223.578000",
          "135226.078000",
          "135228.578000",
          "135231.078000",
          "135233.578000",
          "135236.578000",
          "135239.078000",
          "135241.578000",
          "135244.078000",
          "135246.578000",
          "135249.578000",
          "135252.078000",
          "135254.578000",
          "135257.078000",
          "135259.578000",
          "135302.578000",
          "135305.078000",
          "135307.578000",
          "135310.078000",
          "135313.078000",
          "135315.578000",
          "135318.078000",
          "135320.578000",
          "135323.078000",
          "135326.078000",
          "135328.578000",
          "135331.078000",
          "135333.578000",
          "135336.078000",
          "135338.578000",
          "135341.578000",
          "135344.078000",
          "135346.578000",
          "135349.078000",
          "135351.578000",
          "135354.578000",
          "135357.078000",
          "135359.578000",
          "135402.078000",
          "135405.078000",
          "135407.578000",
          "135410.078000",
          "135412.578000",
          "135415.078000",
          "135418.078000",
          "135420.578000",
          "135423.078000",
          "135425.578000",
          "135428.078000",
          "135430.578000",
          "135433.578000",
          "135436.078000",
          "135438.578000",
          "135445.937000"
        ],
        "InstanceCreationTime": [
          "134818.578000",
          "134818.593000",
          "134819.578000",
          "134821.578000",
          "134824.078000",
          "134826.578000",
          "134829.578000",
          "134832.078000",
          "134834.578000",
          "134837.078000",
          "134840.078000",
          "134842.578000",
          "134845.078000",
          "134847.578000",
          "134850.078000",
          "134852.578000",
          "134855.578000",
          "134858.078000",
          "134900.578000",
          "134903.078000",
          "134906.078000",
          "134908.578000",
          "134911.078000",
          "134913.578000",
          "134916.078000",
          "134918.578000",
          "134921.578000",
          "134924.078000",
          "134926.578000",
          "134929.078000",
          "134931.578000",
          "134934.578000",
          "134937.078000",
          "134939.578000",
          "134942.078000",
          "134944.578000",
          "134947.578000",
          "134950.078000",
          "134952.578000",
          "134955.078000",
          "134958.078000",
          "135000.578000",
          "135003.078000",
          "135005.578000",
          "135008.078000",
          "135010.578000",
          "135013.578000",
          "135016.078000",
          "135018.578000",
          "135021.078000",
          "135024.078000",
          "135026.578000",
          "135029.078000",
          "135031.578000",
          "135034.078000",
          "135036.578000",
          "135039.578000",
          "135042.078000",
          "135044.578000",
          "135047.078000",
          "135049.578000",
          "135052.578000",
          "135055.078000",
          "135057.578000",
          "135100.078000",
          "135102.578000",
          "135105.578000",
          "135108.078000",
          "135110.578000",
          "135113.078000",
          "135115.578000",
          "135118.578000",
          "135121.078000",
          "135123.578000",
          "135126.078000",
          "135129.078000",
          "135131.578000",
          "135134.078000",
          "135136.578000",
          "135139.078000",
          "135141.578000",
          "135144.578000",
          "135147.078000",
          "135149.578000",
          "135152.078000",
          "135154.578000",
          "135157.578000",
          "135200.078000",
          "135202.578000",
          "135205.078000",
          "135207.578000",
          "135210.578000",
          "135213.078000",
          "135215.578000",
          "135218.078000",
          "135220.578000",
          "135223.578000",
          "135226.078000",
          "135228.578000",
          "135231.078000",
          "135233.578000",
          "135236.578000",
          "135239.078000",
          "135241.578000",
          "135244.078000",
          "135246.578000",
          "135249.578000",
          "135252.078000",
          "135254.578000",
          "135257.078000",
          "135259.578000",
          "135302.578000",
          "135305.078000",
          "135307.578000",
          "135310.078000",
          "135313.078000",
          "135315.578000",
          "135318.078000",
          "135320.578000",
          "135323.078000",
          "135326.078000",
          "135328.578000",
          "135331.078000",
          "135333.578000",
          "135336.078000",
          "135338.578000",
          "135341.578000",
          "135344.078000",
          "135346.578000",
          "135349.078000",
          "135351.578000",
          "135354.578000",
          "135357.078000",
          "135359.578000",
          "135402.078000",
          "135405.078000",
          "135407.578000",
          "135410.078000",
          "135412.578000",
          "135415.078000",
          "135418.078000",
          "135420.578000",
          "135423.078000",
          "135425.578000",
          "135428.078000",
          "135430.578000",
          "135433.578000",
          "135436.078000",
          "135438.578000",
          "135445.937000"
        ],
        "InstanceNumber": [
          1,
          2,
          3,
          4,
          5,
          6,
          7,
          8,
          9,
          10,
          11,
          12,
          13,
          14,
          15,
          16,
          17,
          18,
          19,
          20,
          21,
          22,
          23,
          24,
          25,
          26,
          27,
          28,
          29,
          30,
          31,
          32,
          33,
          34,
          35,
          36,
          37,
          38,
          39,
          40,
          41,
          42,
          43,
          44,
          45,
          46,
          47,
          48,
          49,
          50,
          51,
          52,
          53,
          54,
          55,
          56,
          57,
          58,
          59,
          60,
          61,
          62,
          63,
          64,
          65,
          66,
          67,
          68,
          69,
          70,
          71,
          72,
          73,
          74,
          75,
          76,
          77,
          78,
          79,
          80,
          81,
          82,
          83,
          84,
          85,
          86,
          87,
          88,
          89,
          90,
          91,
          92,
          93,
          94,
          95,
          96,
          97,
          98,
          99,
          100,
          101,
          102,
          103,
          104,
          105,
          106,
          107,
          108,
          109,
          110,
          111,
          112,
          113,
          114,
          115,
          116,
          117,
          118,
          119,
          120,
          121,
          122,
          123,
          124,
          125,
          126,
          127,
          128,
          129,
          130,
          131,
          132,
          133,
          134,
          135,
          136,
          137,
          138,
          139,
          140,
          141,
          142,
          143,
          144,
          145,
          146,
          147,
          148,
          149,
          150
        ],
        "WindowCenter": [
          954.0,
          950.0,
          948.0,
          949.0,
          950.0,
          950.0,
          949.0,
          950.0,
          951.0,
          950.0,
          950.0,
          948.0,
          948.0,
          949.0,
          949.0,
          948.0,
          950.0,
          949.0,
          948.0,
          950.0,
          949.0,
          948.0,
          948.0,
          949.0,
          947.0,
          948.0,
          949.0,
          948.0,
          948.0,
          949.0,
          949.0,
          948.0,
          949.0,
          948.0,
          948.0,
          949.0,
          949.0,
          948.0,
          949.0,
          951.0,
          949.0,
          949.0,
          950.0,
          950.0,
          948.0,
          949.0,
          949.0,
          950.0,
          947.0,
          948.0,
          948.0,
          949.0,
          948.0,
          947.0,
          949.0,
          949.0,
          947.0,
          948.0,
          949.0,
          948.0,
          949.0,
          950.0,
          947.0,
          948.0,
          949.0,
          949.0,
          949.0,
          950.0,
          950.0,
          950.0,
          951.0,
          950.0,
          950.0,
          952.0,
          949.0,
          950.0,
          952.0,
          950.0,
          949.0,
          951.0,
          950.0,
          948.0,
          949.0,
          949.0,
          948.0,
          948.0,
          949.0,
          947.0,
          947.0,
          949.0,
          949.0,
          948.0,
          949.0,
          949.0,
          949.0,
          948.0,
          949.0,
          948.0,
          948.0,
          949.0,
          949.0,
          948.0,
          948.0,
          949.0,
          949.0,
          948.0,
          947.0,
          949.0,
          949.0,
          949.0,
          947.0,
          947.0,
          949.0,
          948.0,
          949.0,
          949.0,
          949.0,
          950.0,
          951.0,
          950.0,
          949.0,
          949.0,
          947.0,
          946.0,
          948.0,
          949.0,
          948.0,
          947.0,
          948.0,
          949.0,
          949.0,
          950.0,
          949.0,
          950.0,
          951.0,
          950.0,
          949.0,
          948.0,
          949.0,
          949.0,
          949.0,
          949.0,
          948.0,
          950.0,
          950.0,
          948.0,
          950.0,
          949.0,
          947.0,
          948.0
        ],
        "WindowWidth": [
          2209.0,
          2197.0,
          2191.0,
          2192.0,
          2198.0,
          2196.0,
          2194.0,
          2197.0,
          2202.0,
          2199.0,
          2196.0,
          2190.0,
          2190.0,
          2193.0,
          2193.0,
          2190.0,
          2197.0,
          2194.0,
          2192.0,
          2197.0,
          2192.0,
          2193.0,
          2193.0,
          2195.0,
          2189.0,
          2192.0,
          2194.0,
          2189.0,
          2191.0,
          2194.0,
          2193.0,
          2191.0,
          2195.0,
          2190.0,
          2190.0,
          2195.0,
          2192.0,
          2191.0,
          2196.0,
          2200.0,
          2193.0,
          2193.0,
          2198.0,
          2197.0,
          2191.0,
          2195.0,
          2196.0,
          2196.0,
          2189.0,
          2190.0,
          2190.0,
          2192.0,
          2192.0,
          2188.0,
          2194.0,
          2192.0,
          2188.0,
          2192.0,
          2192.0,
          2192.0,
          2195.0,
          2195.0,
          2189.0,
          2192.0,
          2194.0,
          2194.0,
          2193.0,
          2195.0,
          2195.0,
          2197.0,
          2198.0,
          2196.0,
          2199.0,
          2203.0,
          2195.0,
          2196.0,
          2203.0,
          2197.0,
          2192.0,
          2200.0,
          2195.0,
          2192.0,
          2194.0,
          2194.0,
          2192.0,
          2191.0,
          2192.0,
          2188.0,
          2188.0,
          2193.0,
          2195.0,
          2191.0,
          2195.0,
          2194.0,
          2193.0,
          2190.0,
          2193.0,
          2191.0,
          2192.0,
          2194.0,
          2195.0,
          2192.0,
          2192.0,
          2195.0,
          2194.0,
          2189.0,
          2189.0,
          2195.0,
          2195.0,
          2194.0,
          2188.0,
          2189.0,
          2194.0,
          2189.0,
          2192.0,
          2193.0,
          2193.0,
          2198.0,
          2199.0,
          2196.0,
          2193.0,
          2196.0,
          2187.0,
          2186.0,
          2192.0,
          2194.0,
          2189.0,
          2189.0,
          2193.0,
          2195.0,
          2194.0,
          2198.0,
          2196.0,
          2197.0,
          2201.0,
          2198.0,
          2196.0,
          2192.0,
          2194.0,
          2196.0,
          2196.0,
          2193.0,
          2191.0,
          2197.0,
          2196.0,
          2192.0,
          2198.0,
          2194.0,
          2189.0,
          2190.0
        ]
      },
      "slices": {}
    }
  },
  "dummy_trs": 1,
  "dvars_nstd": 76.3392858764189,
  "dvars_std": 1.0503187949324326,
  "dvars_vstd": 1.0139785892567563,
  "efc": 0.5879364328336542,
  "fber": 207.54998779296875,
  "fd_mean": 0.06443859424853153,
  "fd_num": 3,
  "fd_perc": 2.0134228187919465,
  "fwhm_avg": 3.102169263514968,
  "fwhm_x": 2.9757387040780925,
  "fwhm_y": 2.9693229762049174,
  "fwhm_z": 3.361446110261895,
  "gcor": 0.00126829,
  "gsr_x": 0.052544619888067245,
  "gsr_y": 0.009647953324019909,
  "provenance": {
    "md5sum": "e2de732fdf1942bb1265f874187afc26",
    "settings": {
      "fd_thres": 0.2,
      "testing": false
    },
    "software": "mriqc",
    "version": "22.0.6",
    "webapi_port": null,
    "webapi_url": "https://mriqc.nimh.nih.gov/api/v1"
  },
  "size_t": 149,
  "size_x": 188,
  "size_y": 188,
  "size_z": 46,
  "snr": 1.935068669109887,
  "spacing_tr": 2.5999999046325684,
  "spacing_x": 1.0957447290420532,
  "spacing_y": 1.0957447290420532,
  "spacing_z": 1.0999997854232788,
  "summary_bg_k": 42.18476840360631,
  "summary_bg_mad": 40.20936958615125,
  "summary_bg_mean": 122.96987915039062,
  "summary_bg_median": 68.38255310058594,
  "summary_bg_n": 1017004.0,
  "summary_bg_p05": 34.53691101074219,
