{
  "aor": 0.0005763333333333333,
  "aqi": 0.010594993666666667,
  "bids_meta": {
    "AcquisitionMatrixPE": 188,
    "AcquisitionNumber": 1,
    "AcquisitionTime": "18:30:42.665000",
    "BandwidthPerPixelPhaseEncode": 19.46,
    "BaseResolution": 188,
    "ConversionSoftware": "dcm2niix",
    "ConversionSoftwareVersion": "v1.0.20180606 GCC4.8.5",
    "DelayTime": 1.2,
    "DerivedVendorReportedEchoSpacing": 0.000820013,
    "DeviceSerialNumber": "18930",
    "DwellTime": 1.9e-06,
    "EchoTime": 0.02,
    "EffectiveEchoSpacing": 0.000273338,
    "FlipAngle": 80,
    "ImageComments": "Unaliased_MB2_PE2",
    "ImageOrientationPatientDICOM": [
      0.999913,
      -0.0104875,
      0.00803496,
      0.0100333,
      0.207118,
      -0.978265
    ],
    "ImageType": [
      "ORIGINAL",
      "PRIMARY",
      "M",
      "MB",
      "ND",
      "MOSAIC"
    ],
    "InPlanePhaseEncodingDirectionDICOM": "COL",
    "InstitutionAddress": "Oxfordlaan_55_Maastricht_753AAF_Limburg_NL_6229_EV",
    "InstitutionName": "Scannexus",
    "InstitutionalDepartmentName": "MRI_7T",
    "MRAcquisitionType": "2D",
    "MagneticFieldStrength": 6.98,
    "Manufacturer": "Siemens",
    "ManufacturersModelName": "Investigational_Device_7T",
    "Modality": "MR",
    "MultibandAccelerationFactor": 2,
    "ParallelReductionFactorInPlane": 3,
    "PartialFourier": 0.75,
    "PatientPosition": "HFS",
    "PercentPhaseFOV": 100,
    "PhaseEncodingDirection": "j",
    "PhaseEncodingSteps": 141,
    "PhaseResolution": 1,
    "PixelBandwidth": 1400,
    "ProcedureStepDescription": "FeDem_Faruk",
    "ProtocolName": "cmrr_mbep2d_bold_AP_run4",
    "PulseSequenceDetails": "%CustomerSeq%_cmrr_mbep2d_bold",
    "ReceiveCoilName": "32Ch_Head_7T",
    "ReconMatrixPE": 188,
    "RepetitionTime": 2.6,
    "SAR": 0.0756298,
    "ScanOptions": "PFP_FS",
    "ScanningSequence": "EP",
    "SequenceName": "epfid2d1_188",
    "SequenceVariant": "SK_SS",
    "SeriesDescription": "cmrr_mbep2d_bold_AP_run4",
    "SeriesNumber": 15,
    "ShimSetting": [
      112,
      -93,
      409,
      471,
      -90,
      78,
      246,
      177
    ],
    "SliceThickness": 1.1,
    "SliceTiming": [
      0,
      0.735,
      0.0625,
      0.795,
      0.1225,
      0.8575,
      0.185,
      0.9175,
      0.245,
      0.9775,
      0.3075,
      1.04,
      0.3675,
      1.1,
      0.4275,
      1.1625,
      0.49,
      1.2225,
      0.55,
      1.285,
      0.6125,
      1.345,
      0.6725,
      0,
      0.735,
      0.0625,
      0.795,
      0.1225,
      0.8575,
      0.185,
      0.9175,
      0.245,
      0.9775,
      0.3075,
      1.04,
      0.3675,
      1.1,
      0.4275,
      1.1625,
      0.49,
      1.2225,
      0.55,
      1.285,
      0.6125,
      1.345,
      0.6725
    ],
    "SoftwareVersions": "syngo_MR_B17",
    "SpacingBetweenSlices": 1.1,
    "StationName": "MRC18930",
    "TaskName": "auditory",
    "TotalReadoutTime": 0.0511141,
    "TxRefAmp": 230,
    "dataset": "ds001942",
    "dcmmeta_affine": [
      [
        -1.0956491231918335,
        0.010993985459208488,
        -0.009454931132495403,
        102.07075500488281
      ],
      [
        0.011491656303405762,
        0.22694826126098633,
        -1.0760853290557861,
        23.640270233154297
      ],
      [
        0.008804263547062874,
        1.0719282627105713,
        0.2279253751039505,
        -120.88667297363281
      ],
      [
        0.0,
        0.0,
        0.0,
        1.0
      ]
    ],
    "dcmmeta_reorient_transform": [
      [
        0.0,
        -1.0,
        0.0,
        187.0
      ],
      [
        1.0,
        0.0,
        0.0,
        0.0
      ],
      [
        0.0,
        0.0,
        1.0,
        0.0
      ],
      [
        0.0,
        0.0,
        0.0,
        1.0
      ]
    ],
    "dcmmeta_shape": [
      188,
      188,
      46,
      150
    ],
    "dcmmeta_slice_dim": 2,
    "dcmmeta_version": 0.6,
    "global": {
      "const": {
        "AcquisitionMatrix": [
          188,
          0,
          0,
          188
        ],
        "AngioFlag": "N",
        "BitsAllocated": 16,
        "BitsStored": 12,
        "Columns": 1316,
        "EchoNumbers": 1,
        "EchoTime": 20.0,
        "EchoTrainLength": 1,
        "FlipAngle": 80.0,
        "HighBit": 11,
        "ImageOrientationPatient": [
          0.99991272176587,
          -0.0104875304168,
          0.00803495840217,
          0.01003334518996,
          0.207117825706,
          -0.9782645543303
        ],
        "ImagePositionPatient": [
          -728.27332586475,
          -187.59712455365,
          679.165822268
        ],
        "ImageType": [
          "ORIGINAL",
          "PRIMARY",
          "M",
          "MB",
          "ND",
          "MOSAIC"
        ],
        "ImagedNucleus": "1H",
        "ImagingFrequency": 297.205597,
        "InPlanePhaseEncodingDirection": "COL",
        "LargestImagePixelValue": 4095,
        "MRAcquisitionType": "2D",
        "MagneticFieldStrength": 6.98,
        "Manufacturer": "SIEMENS",
        "ManufacturerModelName": "Investigational_Device_7T",
        "Modality": "MR",
        "NumberOfAverages": 1.0,
        "NumberOfPhaseEncodingSteps": 141,
        "PercentPhaseFieldOfView": 100.0,
        "PercentSampling": 100.0,
        "PerformedProcedureStepStartTime": "174020.343000",
        "PhotometricInterpretation": "MONOCHROME2",
        "PixelBandwidth": 1400.0,
        "PixelRepresentation": 0,
        "PixelSpacing": [
          1.0957447290421,
          1.0957447290421
        ],
        "ProtocolName": "cmrr_mbep2d_bold_AP_run4",
        "RepetitionTime": 2600.0,
        "Rows": 1316,
        "SAR": 0.07562976125247,
        "SamplesPerPixel": 1,
        "ScanOptions": [
          "PFP",
          "FS"
        ],
        "ScanningSequence": "EP",
        "SequenceName": "epfid2d1_188",
        "SequenceVariant": [
          "SK",
          "SS"
        ],
        "SeriesDescription": "cmrr_mbep2d_bold_AP_run4",
        "SeriesNumber": 15,
        "SeriesTime": "183051.765000",
        "SliceLocation": -49.05198509884,
        "SliceThickness": 1.1000000238419,
        "SmallestImagePixelValue": 0,
        "SoftwareVersions": "syngo MR B17",
        "SpacingBetweenSlices": 1.0999995139051,
        "SpecificCharacterSet": "ISO_IR 100",
        "StudyID": "1",
        "StudyTime": "174020.281000",
        "TransmitCoilName": "32Ch_Head_7T",
        "VariableFlipAngleFlag": "N",
        "WindowCenterWidthExplanation": "Algo1",
        "dBdt": 0.0
      },
      "slices": {}
    },
    "modality": "bold",
    "run_id": 4,
    "session_id": "SES02",
    "subject_id": "S10",
    "task_id": "auditory",
    "time": {
      "samples": {
        "AcquisitionNumber": [
          1,
          2,
          3,
          4,
          5,
          6,
          7,
          8,
          9,
          10,
          11,
          12,
          13,
          14,
          15,
          16,
          17,
          18,
          19,
          20,
          21,
          22,
          23,
          24,
          25,
          26,
          27,
          28,
          29,
          30,
          31,
          32,
          33,
          34,
          35,
          36,
          37,
          38,
          39,
          40,
          41,
          42,
          43,
          44,
          45,
          46,
          47,
          48,
          49,
          50,
          51,
          52,
          53,
          54,
          55,
          56,
          57,
          58,
          59,
          60,
          61,
          62,
          63,
          64,
          65,
          66,
          67,
          68,
          69,
          70,
          71,
          72,
          73,
          74,
          75,
          76,
          77,
          78,
          79,
          80,
          81,
          82,
          83,
          84,
          85,
          86,
          87,
          88,
          89,
          90,
          91,
          92,
          93,
          94,
          95,
          96,
          97,
          98,
          99,
          100,
          101,
          102,
          103,
          104,
          105,
          106,
          107,
          108,
          109,
          110,
          111,
          112,
          113,
          114,
          115,
          116,
          117,
          118,
          119,
          120,
          121,
          122,
          123,
          124,
          125,
          126,
          127,
          128,
          129,
          130,
          131,
          132,
          133,
          134,
          135,
          136,
          137,
          138,
          139,
          140,
          141,
          142,
          143,
          144,
          145,
          146,
          147,
          148,
          149,
          150
        ],
        "AcquisitionTime": [
          "183042.665000",
          "183045.277500",
          "183047.887500",
          "183050.497500",
          "183053.107500",
          "183055.717500",
          "183058.327500",
          "183100.940000",
          "183103.550000",
          "183106.160000",
          "183108.770000",
          "183111.380000",
          "183113.990000",
          "183116.602500",
          "183119.212500",
          "183121.822500",
          "183124.432500",
          "183127.042500",
          "183129.655000",
          "183132.265000",
          "183134.875000",
          "183137.485000",
          "183140.095000",
          "183142.705000",
          "183145.317500",
          "183147.927500",
          "183150.537500",
          "183153.147500",
          "183155.757500",
          "183158.367500",
          "183200.980000",
          "183203.590000",
          "183206.200000",
          "183208.810000",
          "183211.420000",
          "183214.032500",
          "183216.642500",
          "183219.252500",
          "183221.862500",
          "183224.472500",
          "183227.082500",
          "183229.695000",
          "183232.305000",
          "183234.915000",
          "183237.525000",
          "183240.135000",
          "183242.745000",
          "183245.357500",
          "183247.967500",
          "183250.577500",
          "183253.187500",
          "183255.797500",
          "183258.410000",
          "183301.020000",
          "183303.630000",
          "183306.240000",
          "183308.850000",
          "183311.460000",
          "183314.072500",
          "183316.682500",
          "183319.292500",
          "183321.902500",
          "183324.512500",
          "183327.122500",
          "183329.735000",
          "183332.345000",
          "183334.955000",
          "183337.565000",
          "183340.175000",
          "183342.787500",
          "183345.397500",
          "183348.007500",
          "183350.617500",
          "183353.227500",
          "183355.837500",
          "183358.450000",
          "183401.060000",
          "183403.670000",
          "183406.280000",
          "183408.890000",
          "183411.500000",
          "183414.112500",
          "183416.722500",
          "183419.332500",
          "183421.942500",
          "183424.552500",
          "183427.165000",
          "183429.775000",
          "183432.385000",
          "183434.995000",
          "183437.605000",
          "183440.215000",
          "183442.827500",
          "183445.437500",
          "183448.047500",
          "183450.657500",
          "183453.267500",
          "183455.877500",
          "183458.490000",
          "183501.100000",
          "183503.710000",
          "183506.320000",
          "183508.930000",
          "183511.542500",
          "183514.152500",
          "183516.762500",
          "183519.372500",
          "183521.982500",
          "183524.592500",
          "183527.205000",
          "183529.815000",
          "183532.425000",
          "183535.035000",
          "183537.645000",
          "183540.255000",
          "183542.867500",
          "183545.477500",
          "183548.087500",
          "183550.697500",
          "183553.307500",
          "183555.920000",
          "183558.530000",
          "183601.140000",
          "183603.750000",
          "183606.360000",
          "183608.970000",
          "183611.582500",
          "183614.192500",
          "183616.802500",
          "183619.412500",
          "183622.022500",
          "183624.632500",
          "183627.245000",
          "183629.855000",
          "183632.465000",
          "183635.075000",
          "183637.685000",
          "183640.297500",
          "183642.907500",
          "183645.517500",
          "183648.127500",
          "183650.737500",
          "183653.347500",
          "183655.960000",
          "183658.570000",
          "183701.180000",
          "183703.790000",
          "183706.400000",
          "183709.012500",
          "183711.622500"
        ],
        "ContentTime": [
          "183051.781000",
          "183051.781000",
          "183052.765000",
          "183054.765000",
          "183057.265000",
          "183059.765000",
          "183102.765000",
          "183105.265000",
          "183107.765000",
          "183110.265000",
          "183112.765000",
          "183115.765000",
          "183118.265000",
          "183120.765000",
          "183123.265000",
          "183125.765000",
          "183128.765000",
          "183131.265000",
          "183133.765000",
          "183136.265000",
          "183138.765000",
          "183141.765000",
          "183144.265000",
          "183146.765000",
          "183149.265000",
          "183151.765000",
          "183154.765000",
          "183157.265000",
          "183159.765000",
          "183202.265000",
          "183204.765000",
          "183207.765000",
          "183210.265000",
          "183212.765000",
          "183215.265000",
          "183217.765000",
          "183220.765000",
          "183223.265000",
          "183225.765000",
          "183228.265000",
          "183230.765000",
          "183233.765000",
          "183236.265000",
          "183238.765000",
          "183241.265000",
          "183243.765000",
          "183246.765000",
          "183249.265000",
          "183251.781000",
          "183254.265000",
          "183256.765000",
          "183259.765000",
          "183302.265000",
          "183304.765000",
          "183307.265000",
          "183309.765000",
          "183312.765000",
          "183315.265000",
          "183317.765000",
          "183320.265000",
          "183322.765000",
          "183325.765000",
          "183328.265000",
          "183330.765000",
          "183333.265000",
          "183335.765000",
          "183338.765000",
          "183341.265000",
          "183343.765000",
          "183346.265000",
          "183348.765000",
          "183351.765000",
          "183354.265000",
          "183356.765000",
          "183359.265000",
          "183401.765000",
          "183404.765000",
          "183407.265000",
          "183409.765000",
          "183412.265000",
          "183414.765000",
          "183417.765000",
          "183420.265000",
          "183422.765000",
          "183425.265000",
          "183427.765000",
          "183430.765000",
          "183433.265000",
          "183435.765000",
          "183438.265000",
          "183440.765000",
          "183443.765000",
          "183446.265000",
          "183448.765000",
          "183451.265000",
          "183453.765000",
          "183456.765000",
          "183459.265000",
          "183501.765000",
          "183504.265000",
          "183506.765000",
          "183509.765000",
          "183512.265000",
          "183514.765000",
          "183517.265000",
          "183519.765000",
          "183522.765000",
          "183525.265000",
          "183527.765000",
          "183530.265000",
          "183532.765000",
          "183535.765000",
          "183538.265000",
          "183540.765000",
          "183543.265000",
          "183546.265000",
          "183548.765000",
          "183551.265000",
          "183553.765000",
          "183556.265000",
          "183558.765000",
          "183601.765000",
          "183604.265000",
          "183606.765000",
          "183609.265000",
          "183611.765000",
          "183614.765000",
          "183617.265000",
          "183619.765000",
          "183622.265000",
          "183624.765000",
          "183627.765000",
          "183630.265000",
          "183632.765000",
          "183635.265000",
          "183637.765000",
          "183640.765000",
          "183643.265000",
          "183645.765000",
          "183648.265000",
          "183650.765000",
          "183653.765000",
          "183656.265000",
          "183658.765000",
          "183701.265000",
          "183703.765000",
          "183706.765000",
          "183709.265000",
          "183711.765000",
          "183719.109000"
        ],
        "InstanceCreationTime": [
          "183051.781000",
          "183051.781000",
          "183052.765000",
          "183054.765000",
          "183057.265000",
          "183059.765000",
          "183102.765000",
          "183105.265000",
          "183107.765000",
          "183110.265000",
          "183112.765000",
          "183115.765000",
          "183118.265000",
          "183120.765000",
          "183123.265000",
          "183125.765000",
          "183128.765000",
          "183131.265000",
          "183133.765000",
          "183136.265000",
          "183138.765000",
          "183141.765000",
          "183144.265000",
          "183146.765000",
          "183149.265000",
          "183151.765000",
          "183154.765000",
          "183157.265000",
          "183159.765000",
          "183202.265000",
          "183204.765000",
          "183207.765000",
          "183210.265000",
          "183212.765000",
          "183215.265000",
          "183217.765000",
          "183220.765000",
          "183223.265000",
          "183225.765000",
          "183228.265000",
          "183230.765000",
          "183233.765000",
          "183236.265000",
          "183238.765000",
          "183241.265000",
          "183243.765000",
          "183246.765000",
          "183249.265000",
          "183251.781000",
          "183254.265000",
          "183256.765000",
          "183259.765000",
          "183302.265000",
          "183304.765000",
          "183307.265000",
          "183309.765000",
          "183312.765000",
          "183315.265000",
          "183317.765000",
          "183320.265000",
          "183322.765000",
          "183325.765000",
          "183328.265000",
          "183330.765000",
          "183333.265000",
          "183335.765000",
          "183338.765000",
          "183341.265000",
          "183343.765000",
          "183346.265000",
          "183348.765000",
          "183351.765000",
          "183354.265000",
          "183356.765000",
          "183359.265000",
          "183401.765000",
          "183404.765000",
          "183407.265000",
          "183409.765000",
          "183412.265000",
          "183414.765000",
          "183417.765000",
          "183420.265000",
          "183422.765000",
          "183425.265000",
          "183427.765000",
          "183430.765000",
          "183433.265000",
          "183435.765000",
          "183438.265000",
          "183440.765000",
          "183443.765000",
          "183446.265000",
          "183448.765000",
          "183451.265000",
          "183453.765000",
          "183456.765000",
          "183459.265000",
          "183501.765000",
          "183504.265000",
          "183506.765000",
          "183509.765000",
          "183512.265000",
          "183514.765000",
          "183517.265000",
          "183519.765000",
          "183522.765000",
          "183525.265000",
          "183527.765000",
          "183530.265000",
          "183532.765000",
          "183535.765000",
          "183538.265000",
          "183540.765000",
          "183543.265000",
          "183546.265000",
          "183548.765000",
          "183551.265000",
          "183553.765000",
          "183556.265000",
          "183558.765000",
          "183601.765000",
          "183604.265000",
          "183606.765000",
          "183609.265000",
          "183611.765000",
          "183614.765000",
          "183617.265000",
          "183619.765000",
          "183622.265000",
          "183624.765000",
          "183627.765000",
          "183630.265000",
          "183632.765000",
          "183635.265000",
          "183637.765000",
          "183640.765000",
          "183643.265000",
          "183645.765000",
          "183648.265000",
          "183650.765000",
          "183653.765000",
          "183656.265000",
          "183658.765000",
          "183701.265000",
          "183703.765000",
          "183706.765000",
          "183709.265000",
          "183711.765000",
          "183719.109000"
        ],
        "InstanceNumber": [
          1,
          2,
          3,
          4,
          5,
          6,
          7,
          8,
          9,
          10,
          11,
          12,
          13,
          14,
          15,
          16,
          17,
          18,
          19,
          20,
          21,
          22,
          23,
          24,
          25,
          26,
          27,
          28,
          29,
          30,
          31,
          32,
          33,
          34,
          35,
          36,
          37,
          38,
          39,
          40,
          41,
          42,
          43,
          44,
          45,
          46,
          47,
          48,
          49,
          50,
          51,
          52,
          53,
          54,
          55,
          56,
          57,
          58,
          59,
          60,
          61,
          62,
          63,
          64,
          65,
          66,
          67,
          68,
          69,
          70,
          71,
          72,
          73,
          74,
          75,
          76,
          77,
          78,
          79,
          80,
          81,
          82,
          83,
          84,
          85,
          86,
          87,
          88,
          89,
          90,
          91,
          92,
          93,
          94,
          95,
          96,
          97,
          98,
          99,
          100,
          101,
          102,
          103,
          104,
          105,
          106,
          107,
          108,
          109,
          110,
          111,
          112,
          113,
          114,
          115,
          116,
          117,
          118,
          119,
          120,
          121,
          122,
          123,
          124,
          125,
          126,
          127,
          128,
          129,
          130,
          131,
          132,
          133,
          134,
          135,
          136,
          137,
          138,
          139,
          140,
          141,
          142,
          143,
          144,
          145,
          146,
          147,
          148,
          149,
          150
        ],
        "WindowCenter": [
          935.0,
          935.0,
          933.0,
          932.0,
          932.0,
          933.0,
          932.0,
          932.0,
          933.0,
          933.0,
          932.0,
          934.0,
          934.0,
          932.0,
          932.0,
          933.0,
          933.0,
          933.0,
          933.0,
          933.0,
          934.0,
          934.0,
          932.0,
          933.0,
          934.0,
          933.0,
          932.0,
          932.0,
          933.0,
          933.0,
          933.0,
          933.0,
          933.0,
          932.0,
          932.0,
          933.0,
          933.0,
          932.0,
          932.0,
          934.0,
          933.0,
          932.0,
          932.0,
          933.0,
          933.0,
          932.0,
          932.0,
          934.0,
          934.0,
          933.0,
          934.0,
          934.0,
          935.0,
          937.0,
          935.0,
          933.0,
          933.0,
          933.0,
          934.0,
          934.0,
          932.0,
          932.0,
          933.0,
          936.0,
          934.0,
          933.0,
          934.0,
          936.0,
          935.0,
          933.0,
          934.0,
          933.0,
          933.0,
          934.0,
          935.0,
          934.0,
          933.0,
          934.0,
          937.0,
          935.0,
          933.0,
          933.0,
          934.0,
          933.0,
          933.0,
          935.0,
          935.0,
          934.0,
          934.0,
          934.0,
          933.0,
          933.0,
          933.0,
          933.0,
          934.0,
          933.0,
          932.0,
          934.0,
          933.0,
          933.0,
          933.0,
          935.0,
          934.0,
          933.0,
          933.0,
          934.0,
          936.0,
          935.0,
          935.0,
          933.0,
          932.0,
          933.0,
          936.0,
          934.0,
          933.0,
          933.0,
          934.0,
          934.0,
          934.0,
          934.0,
          934.0,
          934.0,
          934.0,
          934.0,
          935.0,
          936.0,
          935.0,
          934.0,
          935.0,
          935.0,
          934.0,
          934.0,
          935.0,
          936.0,
          934.0,
          934.0,
          935.0,
          935.0,
          936.0,
          935.0,
          934.0,
          935.0,
          936.0,
          936.0,
          935.0,
          935.0,
          935.0,
          935.0,
          934.0,
          934.0
        ],
        "WindowWidth": [
          2141.0,
          2138.0,
          2134.0,
          2131.0,
          2130.0,
          2134.0,
          2131.0,
          2130.0,
          2132.0,
          2133.0,
          2130.0,
          2136.0,
          2136.0,
          2131.0,
          2131.0,
          2133.0,
          2133.0,
          2133.0,
          2135.0,
          2134.0,
          2136.0,
          2137.0,
          2131.0,
          2134.0,
          2136.0,
          2133.0,
          2132.0,
          2132.0,
          2133.0,
          2133.0,
          2133.0,
          2135.0,
          2133.0,
          2133.0,
          2132.0,
          2135.0,
          2135.0,
          2130.0,
          2130.0,
          2136.0,
          2134.0,
          2130.0,
          2133.0,
          2134.0,
          2133.0,
          2130.0,
          2129.0,
          2136.0,
          2136.0,
          2135.0,
          2136.0,
          2138.0,
          2143.0,
          2147.0,
          2141.0,
          2135.0,
          2134.0,
          2132.0,
          2136.0,
          2136.0,
          2131.0,
          2130.0,
          2134.0,
          2143.0,
          2137.0,
          2135.0,
          2136.0,
          2142.0,
          2138.0,
          2135.0,
          2136.0,
          2135.0,
          2135.0,
          2137.0,
          2140.0,
          2136.0,
          2133.0,
          2139.0,
          2145.0,
          2140.0,
          2133.0,
          2134.0,
          2137.0,
          2133.0,
          2135.0,
          2139.0,
          2140.0,
          2137.0,
          2137.0,
          2136.0,
          2134.0,
          2135.0,
          2133.0,
          2134.0,
          2137.0,
          2135.0,
          2132.0,
          2136.0,
          2135.0,
          2133.0,
          2134.0,
          2139.0,
          2136.0,
          2134.0,
          2134.0,
          2138.0,
          2145.0,
          2142.0,
          2139.0,
          2132.0,
          2131.0,
          2135.0,
          2142.0,
          2136.0,
          2132.0,
          2134.0,
          2138.0,
          2136.0,
          2135.0,
          2136.0,
          2135.0,
          2137.0,
          2137.0,
          2136.0,
          2140.0,
          2143.0,
          2139.0,
          2139.0,
          2140.0,
          2139.0,
          2137.0,
          2136.0,
          2139.0,
          2142.0,
          2137.0,
          2137.0,
          2138.0,
          2139.0,
          2144.0,
          2141.0,
          2138.0,
          2140.0,
          2143.0,
          2143.0,
          2141.0,
          2140.0,
          2139.0,
          2140.0,
          2138.0,
          2138.0
        ]
      },
      "slices": {}
    }
  },
  "dummy_trs": 0,
  "dvars_nstd": 72.60384548127523,
  "dvars_std": 1.0511262131543626,
  "dvars_vstd": 1.019893966912751,
  "efc": 0.5863042553453841,
  "fber": 214.45538330078125,
  "fd_mean": 0.041173538307929,
  "fd_num": 0,
  "fd_perc": 0.0,
  "fwhm_avg": 3.037940364840267,
  "fwhm_x": 2.911298512737423,
  "fwhm_y": 2.8443121079165032,
  "fwhm_z": 3.3582104738668748,
  "gcor": 0.00239651,
  "gsr_x": 0.055585477501153946,
  "gsr_y": 0.024912148714065552,
  "provenance": {
    "md5sum": "1b37694344d26e959efdd7d95273989b",
    "settings": {
      "fd_thres": 0.2,
      "testing": false
    },
    "software": "mriqc",
    "version": "23.0.1",
    "webapi_port": null,
    "webapi_url": "https://mriqc.nimh.nih.gov/api/v1"
  },
  "size_t": 150,
  "size_x": 188,
  "size_y": 188,
  "size_z": 46,
  "snr": 1.882046236179209,
  "spacing_tr": 2.5999999046325684,
  "spacing_x": 1.0957447290420532,
  "spacing_y": 1.0957447290420532,
  "spacing_z": 1.0999995470046997,
  "summary_bg_k": 35.267367314585385,
  "summary_bg_mad": 40.42562576988613,
  "summary_bg_mean": 130.57925415039062,
  "summary_bg_median": 64.95333862304688,
  "summary_bg_n": 1029713.0,
  "summary_bg_p05": 32.746665954589844,
  "summary_bg_p95": 417.1093505859369,
