{
  "aor": 0.0007361999999999999,
  "aqi": 0.011529635666666666,
  "bids_meta": {
    "AcquisitionMatrixPE": 188,
    "AcquisitionNumber": 1,
    "AcquisitionTime": "19:12:7.382500",
    "BandwidthPerPixelPhaseEncode": 19.46,
    "BaseResolution": 188,
    "ConversionSoftware": "dcm2niix",
    "ConversionSoftwareVersion": "v1.0.20180606 GCC4.8.5",
    "DelayTime": 1.2,
    "DerivedVendorReportedEchoSpacing": 0.000820013,
    "DeviceSerialNumber": "18930",
    "DwellTime": 1.9e-06,
    "EchoTime": 0.02,
    "EffectiveEchoSpacing": 0.000273338,
    "FlipAngle": 80,
    "ImageComments": "Unaliased_MB2_PE2",
    "ImageOrientationPatientDICOM": [
      0.999913,
      -0.0104875,
      0.00803496,
      0.0100333,
      0.207118,
      -0.978265
    ],
    "ImageType": [
      "ORIGINAL",
      "PRIMARY",
      "M",
      "MB",
      "ND",
      "MOSAIC"
    ],
    "InPlanePhaseEncodingDirectionDICOM": "COL",
    "InstitutionAddress": "Oxfordlaan_55_Maastricht_753AAF_Limburg_NL_6229_EV",
    "InstitutionName": "Scannexus",
    "InstitutionalDepartmentName": "MRI_7T",
    "MRAcquisitionType": "2D",
    "MagneticFieldStrength": 6.98,
    "Manufacturer": "Siemens",
    "ManufacturersModelName": "Investigational_Device_7T",
    "Modality": "MR",
    "MultibandAccelerationFactor": 2,
    "ParallelReductionFactorInPlane": 3,
    "PartialFourier": 0.75,
    "PatientPosition": "HFS",
    "PercentPhaseFOV": 100,
    "PhaseEncodingDirection": "j",
    "PhaseEncodingSteps": 141,
    "PhaseResolution": 1,
    "PixelBandwidth": 1400,
    "ProcedureStepDescription": "FeDem_Faruk",
    "ProtocolName": "cmrr_mbep2d_bold_AP_run9",
    "PulseSequenceDetails": "%CustomerSeq%_cmrr_mbep2d_bold",
    "ReceiveCoilName": "32Ch_Head_7T",
    "ReconMatrixPE": 188,
    "RepetitionTime": 2.6,
    "SAR": 0.0752891,
    "ScanOptions": "PFP_FS",
    "ScanningSequence": "EP",
    "SequenceName": "epfid2d1_188",
    "SequenceVariant": "SK_SS",
    "SeriesDescription": "cmrr_mbep2d_bold_AP_run9",
    "SeriesNumber": 22,
    "ShimSetting": [
      112,
      -93,
      409,
      471,
      -90,
      78,
      246,
      177
    ],
    "SliceThickness": 1.1,
    "SliceTiming": [
      0,
      0.735,
      0.0625,
      0.795,
      0.1225,
      0.8575,
      0.185,
      0.9175,
      0.245,
      0.9775,
      0.3075,
      1.04,
      0.3675,
      1.1,
      0.4275,
      1.1625,
      0.49,
      1.2225,
      0.55,
      1.285,
      0.6125,
      1.345,
      0.6725,
      0,
      0.735,
      0.0625,
      0.795,
      0.1225,
      0.8575,
      0.185,
      0.9175,
      0.245,
      0.9775,
      0.3075,
      1.04,
      0.3675,
      1.1,
      0.4275,
      1.1625,
      0.49,
      1.2225,
      0.55,
      1.285,
      0.6125,
      1.345,
      0.6725
    ],
    "SoftwareVersions": "syngo_MR_B17",
    "SpacingBetweenSlices": 1.1,
    "StationName": "MRC18930",
    "TaskName": "auditory",
    "TotalReadoutTime": 0.0511141,
    "TxRefAmp": 230,
    "dataset": "ds001942",
    "dcmmeta_affine": [
      [
        -1.0956491231918335,
        0.010993985459208488,
        -0.009454931132495403,
        102.07075500488281
      ],
      [
        0.011491656303405762,
        0.22694826126098633,
        -1.0760853290557861,
        23.640270233154297
      ],
      [
        0.008804263547062874,
        1.0719282627105713,
        0.2279253751039505,
        -120.88667297363281
      ],
      [
        0.0,
        0.0,
        0.0,
        1.0
      ]
    ],
    "dcmmeta_reorient_transform": [
      [
        0.0,
        -1.0,
        0.0,
        187.0
      ],
      [
        1.0,
        0.0,
        0.0,
        0.0
      ],
      [
        0.0,
        0.0,
        1.0,
        0.0
      ],
      [
        0.0,
        0.0,
        0.0,
        1.0
      ]
    ],
    "dcmmeta_shape": [
      188,
      188,
      46,
      150
    ],
    "dcmmeta_slice_dim": 2,
    "dcmmeta_version": 0.6,
    "global": {
      "const": {
        "AcquisitionMatrix": [
          188,
          0,
          0,
          188
        ],
        "AngioFlag": "N",
        "BitsAllocated": 16,
        "BitsStored": 12,
        "Columns": 1316,
        "EchoNumbers": 1,
        "EchoTime": 20.0,
        "EchoTrainLength": 1,
        "FlipAngle": 80.0,
        "HighBit": 11,
        "ImageOrientationPatient": [
          0.99991272176587,
          -0.0104875304168,
          0.00803495840217,
          0.01003334518996,
          0.207117825706,
          -0.9782645543303
        ],
        "ImagePositionPatient": [
          -728.27332586475,
          -187.59712455365,
          679.165822268
        ],
        "ImageType": [
          "ORIGINAL",
          "PRIMARY",
          "M",
          "MB",
          "ND",
          "MOSAIC"
        ],
        "ImagedNucleus": "1H",
        "ImagingFrequency": 297.205605,
        "InPlanePhaseEncodingDirection": "COL",
        "LargestImagePixelValue": 4095,
        "MRAcquisitionType": "2D",
        "MagneticFieldStrength": 6.98,
        "Manufacturer": "SIEMENS",
        "ManufacturerModelName": "Investigational_Device_7T",
        "Modality": "MR",
        "NumberOfAverages": 1.0,
        "NumberOfPhaseEncodingSteps": 141,
        "PercentPhaseFieldOfView": 100.0,
        "PercentSampling": 100.0,
        "PerformedProcedureStepStartTime": "174020.343000",
        "PhotometricInterpretation": "MONOCHROME2",
        "PixelBandwidth": 1400.0,
        "PixelRepresentation": 0,
        "PixelSpacing": [
          1.0957447290421,
          1.0957447290421
        ],
        "ProtocolName": "cmrr_mbep2d_bold_AP_run9",
        "RepetitionTime": 2600.0,
        "Rows": 1316,
        "SAR": 0.0752890522695,
        "SamplesPerPixel": 1,
        "ScanOptions": [
          "PFP",
          "FS"
        ],
        "ScanningSequence": "EP",
        "SequenceName": "epfid2d1_188",
        "SequenceVariant": [
          "SK",
          "SS"
        ],
        "SeriesDescription": "cmrr_mbep2d_bold_AP_run9",
        "SeriesNumber": 22,
        "SeriesTime": "191216.312000",
        "SliceLocation": -49.05198509884,
        "SliceThickness": 1.1000000238419,
        "SmallestImagePixelValue": 0,
        "SoftwareVersions": "syngo MR B17",
        "SpacingBetweenSlices": 1.0999995139051,
        "SpecificCharacterSet": "ISO_IR 100",
        "StudyID": "1",
        "StudyTime": "174020.281000",
        "TransmitCoilName": "32Ch_Head_7T",
        "VariableFlipAngleFlag": "N",
        "WindowCenterWidthExplanation": "Algo1",
        "dBdt": 0.0
      },
      "slices": {}
    },
    "modality": "bold",
    "run_id": 9,
    "session_id": "SES02",
    "subject_id": "S10",
    "task_id": "auditory",
    "time": {
      "samples": {
        "AcquisitionNumber": [
          1,
          2,
          3,
          4,
          5,
          6,
          7,
          8,
          9,
          10,
          11,
          12,
          13,
          14,
          15,
          16,
          17,
          18,
          19,
          20,
          21,
          22,
          23,
          24,
          25,
          26,
          27,
          28,
          29,
          30,
          31,
          32,
          33,
          34,
          35,
          36,
          37,
          38,
          39,
          40,
          41,
          42,
          43,
          44,
          45,
          46,
          47,
          48,
          49,
          50,
          51,
          52,
          53,
          54,
          55,
          56,
          57,
          58,
          59,
          60,
          61,
          62,
          63,
          64,
          65,
          66,
          67,
          68,
          69,
          70,
          71,
          72,
          73,
          74,
          75,
          76,
          77,
          78,
          79,
          80,
          81,
          82,
          83,
          84,
          85,
          86,
          87,
          88,
          89,
          90,
          91,
          92,
          93,
          94,
          95,
          96,
          97,
          98,
          99,
          100,
          101,
          102,
          103,
          104,
          105,
          106,
          107,
          108,
          109,
          110,
          111,
          112,
          113,
          114,
          115,
          116,
          117,
          118,
          119,
          120,
          121,
          122,
          123,
          124,
          125,
          126,
          127,
          128,
          129,
          130,
          131,
          132,
          133,
          134,
          135,
          136,
          137,
          138,
          139,
          140,
          141,
          142,
          143,
          144,
          145,
          146,
          147,
          148,
          149,
          150
        ],
        "AcquisitionTime": [
          "191207.382500",
          "191209.995000",
          "191212.605000",
          "191215.215000",
          "191217.825000",
          "191220.435000",
          "191223.045000",
          "191225.657500",
          "191228.267500",
          "191230.877500",
          "191233.487500",
          "191236.097500",
          "191238.707500",
          "191241.320000",
          "191243.930000",
          "191246.540000",
          "191249.150000",
          "191251.760000",
          "191254.372500",
          "191256.982500",
          "191259.592500",
          "191302.202500",
          "191304.812500",
          "191307.422500",
          "191310.035000",
          "191312.645000",
          "191315.255000",
          "191317.865000",
          "191320.475000",
          "191323.085000",
          "191325.697500",
          "191328.307500",
          "191330.917500",
          "191333.527500",
          "191336.137500",
          "191338.750000",
          "191341.360000",
          "191343.970000",
          "191346.580000",
          "191349.190000",
          "191351.800000",
          "191354.412500",
          "191357.022500",
          "191359.632500",
          "191402.242500",
          "191404.852500",
          "191407.462500",
          "191410.075000",
          "191412.685000",
          "191415.295000",
          "191417.905000",
          "191420.515000",
          "191423.127500",
          "191425.737500",
          "191428.347500",
          "191430.957500",
          "191433.567500",
          "191436.177500",
          "191438.790000",
          "191441.400000",
          "191444.010000",
          "191446.620000",
          "191449.230000",
          "191451.840000",
          "191454.452500",
          "191457.062500",
          "191459.672500",
          "191502.282500",
          "191504.892500",
          "191507.505000",
          "191510.115000",
          "191512.725000",
          "191515.335000",
          "191517.945000",
          "191520.555000",
          "191523.167500",
          "191525.777500",
          "191528.387500",
          "191530.997500",
          "191533.607500",
          "191536.220000",
          "191538.830000",
          "191541.440000",
          "191544.050000",
          "191546.660000",
          "191549.270000",
          "191551.882500",
          "191554.492500",
          "191557.102500",
          "191559.712500",
          "191602.322500",
          "191604.932500",
          "191607.545000",
          "191610.155000",
          "191612.765000",
          "191615.375000",
          "191617.985000",
          "191620.597500",
          "191623.207500",
          "191625.817500",
          "191628.427500",
          "191631.037500",
          "191633.647500",
          "191636.260000",
          "191638.870000",
          "191641.480000",
          "191644.090000",
          "191646.700000",
          "191649.310000",
          "191651.922500",
          "191654.532500",
          "191657.142500",
          "191659.752500",
          "191702.362500",
          "191704.975000",
          "191707.585000",
          "191710.195000",
          "191712.805000",
          "191715.415000",
          "191718.025000",
          "191720.637500",
          "191723.247500",
          "191725.857500",
          "191728.467500",
          "191731.077500",
          "191733.687500",
          "191736.300000",
          "191738.910000",
          "191741.520000",
          "191744.130000",
          "191746.740000",
          "191749.352500",
          "191751.962500",
          "191754.572500",
          "191757.182500",
          "191759.792500",
          "191802.402500",
          "191805.015000",
          "191807.625000",
          "191810.235000",
          "191812.845000",
          "191815.455000",
          "191818.065000",
          "191820.677500",
          "191823.287500",
          "191825.897500",
          "191828.507500",
          "191831.117500",
          "191833.730000",
          "191836.340000"
        ],
        "ContentTime": [
          "191216.312000",
          "191216.812000",
          "191217.812000",
          "191219.812000",
          "191222.812000",
          "191225.312000",
          "191227.812000",
          "191230.312000",
          "191232.812000",
          "191235.812000",
          "191238.312000",
          "191240.812000",
          "191243.312000",
          "191245.812000",
          "191248.812000",
          "191251.312000",
          "191253.812000",
          "191256.312000",
          "191258.812000",
          "191301.812000",
          "191304.312000",
          "191306.812000",
          "191309.312000",
          "191311.812000",
          "191314.812000",
          "191317.312000",
          "191319.812000",
          "191322.312000",
          "191324.812000",
          "191327.812000",
          "191330.312000",
          "191332.812000",
          "191335.312000",
          "191337.812000",
          "191340.812000",
          "191343.312000",
          "191345.812000",
          "191348.312000",
          "191350.812000",
          "191353.812000",
          "191356.312000",
          "191358.812000",
          "191401.312000",
          "191403.812000",
          "191406.812000",
          "191409.312000",
          "191411.812000",
          "191414.312000",
          "191416.812000",
          "191419.812000",
          "191422.312000",
          "191424.812000",
          "191427.312000",
          "191429.812000",
          "191432.812000",
          "191435.312000",
          "191437.812000",
          "191440.312000",
          "191442.812000",
          "191445.812000",
          "191448.312000",
          "191450.812000",
          "191453.312000",
          "191455.812000",
          "191458.812000",
          "191501.312000",
          "191503.812000",
          "191506.312000",
          "191508.812000",
          "191511.812000",
          "191514.312000",
          "191516.812000",
          "191519.312000",
          "191521.812000",
          "191524.812000",
          "191527.312000",
          "191529.812000",
          "191532.312000",
          "191534.812000",
          "191537.812000",
          "191540.312000",
          "191542.812000",
          "191545.312000",
          "191547.812000",
          "191550.812000",
          "191553.312000",
          "191555.812000",
          "191558.312000",
          "191600.812000",
          "191603.812000",
          "191606.312000",
          "191608.812000",
          "191611.312000",
          "191613.812000",
          "191616.812000",
          "191619.312000",
          "191621.812000",
          "191624.312000",
          "191626.812000",
          "191629.812000",
          "191632.312000",
          "191634.812000",
          "191637.312000",
          "191639.812000",
          "191642.812000",
          "191645.312000",
          "191647.812000",
          "191650.312000",
          "191652.812000",
          "191655.812000",
          "191658.312000",
          "191700.812000",
          "191703.312000",
          "191705.812000",
          "191708.812000",
          "191711.312000",
          "191713.812000",
          "191716.312000",
          "191718.812000",
          "191721.812000",
          "191724.312000",
          "191726.812000",
          "191729.312000",
          "191731.812000",
          "191734.812000",
          "191737.312000",
          "191739.812000",
          "191742.312000",
          "191744.812000",
          "191747.812000",
          "191750.312000",
          "191752.812000",
          "191755.312000",
          "191757.812000",
          "191800.812000",
          "191803.312000",
          "191805.812000",
          "191808.312000",
          "191810.812000",
          "191813.812000",
          "191816.312000",
          "191818.812000",
          "191821.312000",
          "191823.812000",
          "191826.812000",
          "191829.312000",
          "191831.812000",
          "191834.312000",
          "191836.812000",
          "191844.296000"
        ],
        "InstanceCreationTime": [
          "191216.312000",
          "191216.812000",
          "191217.812000",
          "191219.812000",
          "191222.812000",
          "191225.312000",
          "191227.812000",
          "191230.312000",
          "191232.812000",
          "191235.812000",
          "191238.312000",
          "191240.812000",
          "191243.312000",
          "191245.812000",
          "191248.812000",
          "191251.312000",
          "191253.812000",
          "191256.312000",
          "191258.812000",
          "191301.812000",
          "191304.312000",
          "191306.812000",
          "191309.312000",
          "191311.812000",
          "191314.812000",
          "191317.312000",
          "191319.812000",
          "191322.312000",
          "191324.812000",
          "191327.812000",
          "191330.312000",
          "191332.812000",
          "191335.312000",
          "191337.812000",
          "191340.812000",
          "191343.312000",
          "191345.812000",
          "191348.312000",
          "191350.812000",
          "191353.812000",
          "191356.312000",
          "191358.812000",
          "191401.312000",
          "191403.812000",
          "191406.812000",
          "191409.312000",
          "191411.812000",
          "191414.312000",
          "191416.812000",
          "191419.812000",
          "191422.312000",
          "191424.812000",
          "191427.312000",
          "191429.812000",
          "191432.812000",
          "191435.312000",
          "191437.812000",
          "191440.312000",
          "191442.812000",
          "191445.812000",
          "191448.312000",
          "191450.812000",
          "191453.312000",
          "191455.812000",
          "191458.812000",
          "191501.312000",
          "191503.812000",
          "191506.312000",
          "191508.812000",
          "191511.812000",
          "191514.312000",
          "191516.812000",
          "191519.312000",
          "191521.812000",
          "191524.812000",
          "191527.312000",
          "191529.812000",
          "191532.312000",
          "191534.812000",
          "191537.812000",
          "191540.312000",
          "191542.812000",
          "191545.312000",
          "191547.812000",
          "191550.812000",
          "191553.312000",
          "191555.812000",
          "191558.312000",
          "191600.812000",
          "191603.812000",
          "191606.312000",
          "191608.812000",
          "191611.312000",
          "191613.812000",
          "191616.812000",
          "191619.312000",
          "191621.812000",
          "191624.312000",
          "191626.812000",
          "191629.812000",
          "191632.312000",
          "191634.812000",
          "191637.312000",
          "191639.812000",
          "191642.812000",
          "191645.312000",
          "191647.812000",
          "191650.312000",
          "191652.812000",
          "191655.812000",
          "191658.312000",
          "191700.812000",
          "191703.312000",
          "191705.812000",
          "191708.812000",
          "191711.312000",
          "191713.812000",
          "191716.312000",
          "191718.812000",
          "191721.812000",
          "191724.312000",
          "191726.812000",
          "191729.312000",
          "191731.812000",
          "191734.812000",
          "191737.312000",
          "191739.812000",
          "191742.312000",
          "191744.812000",
          "191747.812000",
          "191750.312000",
          "191752.812000",
          "191755.312000",
          "191757.812000",
          "191800.812000",
          "191803.312000",
          "191805.812000",
          "191808.312000",
          "191810.812000",
          "191813.812000",
          "191816.312000",
          "191818.812000",
          "191821.312000",
          "191823.812000",
          "191826.812000",
          "191829.312000",
          "191831.812000",
          "191834.312000",
          "191836.812000",
          "191844.296000"
        ],
        "InstanceNumber": [
          1,
          2,
          3,
          4,
          5,
          6,
          7,
          8,
          9,
          10,
          11,
          12,
          13,
          14,
          15,
          16,
          17,
          18,
          19,
          20,
          21,
          22,
          23,
          24,
          25,
          26,
          27,
          28,
          29,
          30,
          31,
          32,
          33,
          34,
          35,
          36,
          37,
          38,
          39,
          40,
          41,
          42,
          43,
          44,
          45,
          46,
          47,
          48,
          49,
          50,
          51,
          52,
          53,
          54,
          55,
          56,
          57,
          58,
          59,
          60,
          61,
          62,
          63,
          64,
          65,
          66,
          67,
          68,
          69,
          70,
          71,
          72,
          73,
          74,
          75,
          76,
          77,
          78,
          79,
          80,
          81,
          82,
          83,
          84,
          85,
          86,
          87,
          88,
          89,
          90,
          91,
          92,
          93,
          94,
          95,
          96,
          97,
          98,
          99,
          100,
          101,
          102,
          103,
          104,
          105,
          106,
          107,
          108,
          109,
          110,
          111,
          112,
          113,
          114,
          115,
          116,
          117,
          118,
          119,
          120,
          121,
          122,
          123,
          124,
          125,
          126,
          127,
          128,
          129,
          130,
          131,
          132,
          133,
          134,
          135,
          136,
          137,
          138,
          139,
          140,
          141,
          142,
          143,
          144,
          145,
          146,
          147,
          148,
          149,
          150
        ],
        "WindowCenter": [
          936.0,
          935.0,
          934.0,
          932.0,
          933.0,
          934.0,
          933.0,
          932.0,
          932.0,
          933.0,
          933.0,
          933.0,
          933.0,
          932.0,
          932.0,
          933.0,
          933.0,
          932.0,
          935.0,
          934.0,
          933.0,
          932.0,
          934.0,
          935.0,
          933.0,
          933.0,
          932.0,
          933.0,
          934.0,
          934.0,
          934.0,
          933.0,
          933.0,
          933.0,
          934.0,
          933.0,
          933.0,
          933.0,
          934.0,
          933.0,
          932.0,
          932.0,
          934.0,
          934.0,
          933.0,
          931.0,
          933.0,
          934.0,
          933.0,
          932.0,
          933.0,
          934.0,
          934.0,
          933.0,
          934.0,
          935.0,
          935.0,
          934.0,
          934.0,
          935.0,
          937.0,
          936.0,
          934.0,
          933.0,
          935.0,
          934.0,
          933.0,
          934.0,
          935.0,
          935.0,
          934.0,
          934.0,
          934.0,
          934.0,
          935.0,
          936.0,
          936.0,
          935.0,
          935.0,
          936.0,
          934.0,
          933.0,
          933.0,
          935.0,
          935.0,
          934.0,
          935.0,
          934.0,
          935.0,
          936.0,
          935.0,
          933.0,
          933.0,
          935.0,
          935.0,
          934.0,
          934.0,
          935.0,
          936.0,
          935.0,
          936.0,
          936.0,
          935.0,
          935.0,
          936.0,
          936.0,
          936.0,
          936.0,
          936.0,
          936.0,
          935.0,
          937.0,
          939.0,
          936.0,
          935.0,
          936.0,
          937.0,
          936.0,
          936.0,
          936.0,
          937.0,
          936.0,
          935.0,
          936.0,
          936.0,
          935.0,
          935.0,
          935.0,
          936.0,
          935.0,
          934.0,
          934.0,
          935.0,
          935.0,
          934.0,
          935.0,
          935.0,
          933.0,
          933.0,
          934.0,
          933.0,
          934.0,
          935.0,
          934.0,
          934.0,
          934.0,
          933.0,
          933.0,
          934.0,
          936.0
        ],
        "WindowWidth": [
          2144.0,
          2140.0,
          2135.0,
          2132.0,
          2134.0,
          2139.0,
          2133.0,
          2130.0,
          2130.0,
          2133.0,
          2135.0,
          2136.0,
          2134.0,
          2130.0,
          2131.0,
          2134.0,
          2134.0,
          2132.0,
          2141.0,
          2137.0,
          2133.0,
          2131.0,
          2136.0,
          2140.0,
          2135.0,
          2133.0,
          2131.0,
          2135.0,
          2138.0,
          2137.0,
          2137.0,
          2133.0,
          2135.0,
          2135.0,
          2136.0,
          2134.0,
          2134.0,
          2134.0,
          2136.0,
          2133.0,
          2132.0,
          2131.0,
          2136.0,
          2138.0,
          2132.0,
          2129.0,
          2134.0,
          2138.0,
          2134.0,
          2132.0,
          2136.0,
          2138.0,
          2135.0,
          2135.0,
          2138.0,
          2139.0,
          2139.0,
          2137.0,
          2138.0,
          2141.0,
          2146.0,
          2143.0,
          2136.0,
          2135.0,
          2138.0,
          2136.0,
          2133.0,
          2138.0,
          2140.0,
          2140.0,
          2137.0,
          2137.0,
          2138.0,
          2137.0,
          2140.0,
          2141.0,
          2142.0,
          2141.0,
          2139.0,
          2141.0,
          2135.0,
          2132.0,
          2135.0,
          2140.0,
          2139.0,
          2137.0,
          2137.0,
          2137.0,
          2140.0,
          2142.0,
          2137.0,
          2133.0,
          2132.0,
          2138.0,
          2138.0,
          2136.0,
          2135.0,
          2140.0,
          2142.0,
          2140.0,
          2142.0,
          2142.0,
          2139.0,
          2140.0,
          2143.0,
          2141.0,
          2141.0,
          2141.0,
          2141.0,
          2142.0,
          2139.0,
          2145.0,
          2150.0,
          2141.0,
          2138.0,
          2140.0,
          2144.0,
          2141.0,
          2141.0,
          2142.0,
          2146.0,
          2141.0,
          2138.0,
          2143.0,
          2141.0,
          2139.0,
          2140.0,
          2139.0,
          2141.0,
          2140.0,
          2136.0,
          2135.0,
          2138.0,
          2140.0,
          2137.0,
          2139.0,
          2138.0,
          2134.0,
          2133.0,
          2136.0,
          2134.0,
          2136.0,
          2140.0,
          2137.0,
          2136.0,
          2136.0,
          2132.0,
          2132.0,
          2136.0,
          2142.0
        ]
      },
      "slices": {}
    }
  },
  "dummy_trs": 0,
  "dvars_nstd": 72.71990096362411,
  "dvars_std": 1.0507316356375838,
  "dvars_vstd": 1.0289999726845638,
  "efc": 0.5867502417658288,
  "fber": 211.7852325439453,
  "fd_mean": 0.04043356651997993,
  "fd_num": 0,
  "fd_perc": 0.0,
  "fwhm_avg": 3.043360576875019,
  "fwhm_x": 2.9158159882668993,
  "fwhm_y": 2.853118903645684,
  "fwhm_z": 3.3611468387124743,
  "gcor": 0.00217793,
  "gsr_x": 0.05701165646314621,
  "gsr_y": 0.024792661890387535,
  "provenance": {
    "md5sum": "8155604ad1c6acec04dd80a18b681c27",
    "settings": {
      "fd_thres": 0.2,
      "testing": false
    },
    "software": "mriqc",
    "version": "23.0.1",
    "webapi_port": null,
    "webapi_url": "https://mriqc.nimh.nih.gov/api/v1"
  },
  "size_t": 150,
  "size_x": 188,
  "size_y": 188,
  "size_z": 46,
  "snr": 1.8882735569339535,
  "spacing_tr": 2.5999999046325684,
  "spacing_x": 1.0957447290420532,
  "spacing_y": 1.0957447290420532,
  "spacing_z": 1.0999995470046997,
  "summary_bg_k": 34.904434931155386,
  "summary_bg_mad": 41.24598761069293,
  "summary_bg_mean": 132.0015411376953,
  "summary_bg_median": 65.5999984741211,
  "summary_bg_n": 1031297.0,
  "summary_bg_p05": 32.7400016784668,
  "summary_bg_p95": 422.7799987792969,
