{
  "aor": 0.0005781333333333333,
  "aqi": 0.012790774,
  "bids_meta": {
    "AcquisitionMatrixPE": 188,
    "AcquisitionNumber": 1,
    "AcquisitionTime": "13:00:57.750000",
    "BandwidthPerPixelPhaseEncode": 19.46,
    "BaseResolution": 188,
    "ConversionSoftware": "dcm2niix",
    "ConversionSoftwareVersion": "v1.0.20180606 GCC4.8.5",
    "DelayTime": 1.2,
    "DerivedVendorReportedEchoSpacing": 0.000820013,
    "DeviceSerialNumber": "18930",
    "DwellTime": 1.9e-06,
    "EchoTime": 0.02,
    "EffectiveEchoSpacing": 0.000273338,
    "FlipAngle": 80,
    "ImageComments": "Unaliased_MB2_PE2",
    "ImageOrientationPatientDICOM": [
      0.998247,
      0.034978,
      -0.0477451,
      -0.0521758,
      0.139228,
      -0.988885
    ],
    "ImageType": [
      "ORIGINAL",
      "PRIMARY",
      "M",
      "MB",
      "ND",
      "MOSAIC"
    ],
    "InPlanePhaseEncodingDirectionDICOM": "COL",
    "InstitutionAddress": "Oxfordlaan_55_Maastricht_753AAF_Limburg_NL_6229_EV",
    "InstitutionName": "Scannexus",
    "InstitutionalDepartmentName": "MRI_7T",
    "MRAcquisitionType": "2D",
    "MagneticFieldStrength": 6.98,
    "Manufacturer": "Siemens",
    "ManufacturersModelName": "Investigational_Device_7T",
    "Modality": "MR",
    "MultibandAccelerationFactor": 2,
    "ParallelReductionFactorInPlane": 3,
    "PartialFourier": 0.75,
    "PatientPosition": "HFS",
    "PercentPhaseFOV": 100,
    "PhaseEncodingDirection": "j",
    "PhaseEncodingSteps": 141,
    "PhaseResolution": 1,
    "PixelBandwidth": 1400,
    "ProcedureStepDescription": "FeDem_Faruk",
    "ProtocolName": "cmrr_mbep2d_bold_AP_run6",
    "PulseSequenceDetails": "%CustomerSeq%_cmrr_mbep2d_bold",
    "ReceiveCoilName": "32Ch_Head_7T",
    "ReconMatrixPE": 188,
    "RepetitionTime": 2.6,
    "SAR": 0.0946851,
    "ScanOptions": "PFP_FS",
    "ScanningSequence": "EP",
    "SequenceName": "epfid2d1_188",
    "SequenceVariant": "SK_SS",
    "SeriesDescription": "cmrr_mbep2d_bold_AP_run6",
    "SeriesNumber": 17,
    "ShimSetting": [
      49,
      -92,
      482,
      429,
      -59,
      -52,
      -137,
      172
    ],
    "SliceThickness": 1.1,
    "SliceTiming": [
      0,
      0.7325,
      0.06,
      0.7925,
      0.1225,
      0.855,
      0.1825,
      0.915,
      0.2425,
      0.9775,
      0.305,
      1.0375,
      0.365,
      1.1,
      0.4275,
      1.16,
      0.4875,
      1.2225,
      0.55,
      1.2825,
      0.61,
      1.3425,
      0.6725,
      0,
      0.7325,
      0.06,
      0.7925,
      0.1225,
      0.855,
      0.1825,
      0.915,
      0.2425,
      0.9775,
      0.305,
      1.0375,
      0.365,
      1.1,
      0.4275,
      1.16,
      0.4875,
      1.2225,
      0.55,
      1.2825,
      0.61,
      1.3425,
      0.6725
    ],
    "SoftwareVersions": "syngo_MR_B17",
    "SpacingBetweenSlices": 1.1,
    "StationName": "MRC18930",
    "TaskName": "auditory",
    "TotalReadoutTime": 0.0511141,
    "TxRefAmp": 235,
    "dataset": "ds001942",
    "dcmmeta_affine": [
      [
        -1.093823790550232,
        -0.05717133730649948,
        0.03073599748313427,
        103.88965606689453
      ],
      [
        -0.03832700103521347,
        0.1525578647851944,
        -1.0886064767837524,
        34.36977005004883
      ],
      [
        -0.052316438406705856,
        1.0835654735565186,
        0.1548893004655838,
        -112.62718963623047
      ],
      [
        0.0,
        0.0,
        0.0,
        1.0
      ]
    ],
    "dcmmeta_reorient_transform": [
      [
        0.0,
        -1.0,
        0.0,
        187.0
      ],
      [
        1.0,
        0.0,
        0.0,
        0.0
      ],
      [
        0.0,
        0.0,
        1.0,
        0.0
      ],
      [
        0.0,
        0.0,
        0.0,
        1.0
      ]
    ],
    "dcmmeta_shape": [
      188,
      188,
      46,
      150
    ],
    "dcmmeta_slice_dim": 2,
    "dcmmeta_version": 0.6,
    "global": {
      "const": {
        "AcquisitionMatrix": [
          188,
          0,
          0,
          188
        ],
        "AngioFlag": "N",
        "BitsAllocated": 16,
        "BitsStored": 12,
        "Columns": 1316,
        "EchoNumbers": 1,
        "EchoTime": 20.0,
        "EchoTrainLength": 1,
        "FlipAngle": 80.0,
        "HighBit": 11,
        "ImageOrientationPatient": [
          0.99824693467065,
          0.03497803943101,
          -0.0477450958552,
          -0.0521757796666,
          0.13922755963807,
          -0.9888849147668
        ],
        "ImagePositionPatient": [
          -677.8706133972,
          -170.55715654583,
          730.63692076772
        ],
        "ImageType": [
          "ORIGINAL",
          "PRIMARY",
          "M",
          "MB",
          "ND",
          "MOSAIC"
        ],
        "ImagedNucleus": "1H",
        "ImagingFrequency": 297.205583,
        "InPlanePhaseEncodingDirection": "COL",
        "LargestImagePixelValue": 4095,
        "MRAcquisitionType": "2D",
        "MagneticFieldStrength": 6.98,
        "Manufacturer": "SIEMENS",
        "ManufacturerModelName": "Investigational_Device_7T",
        "Modality": "MR",
        "NumberOfAverages": 1.0,
        "NumberOfPhaseEncodingSteps": 141,
        "PercentPhaseFieldOfView": 100.0,
        "PercentSampling": 100.0,
        "PerformedProcedureStepStartTime": "115315.781000",
        "PhotometricInterpretation": "MONOCHROME2",
        "PixelBandwidth": 1400.0,
        "PixelRepresentation": 0,
        "PixelSpacing": [
          1.0957447290421,
          1.0957447290421
        ],
        "ProtocolName": "cmrr_mbep2d_bold_AP_run6",
        "RepetitionTime": 2600.0,
        "Rows": 1316,
        "SAR": 0.09468514310893,
        "SamplesPerPixel": 1,
        "ScanOptions": [
          "PFP",
          "FS"
        ],
        "ScanningSequence": "EP",
        "SequenceName": "epfid2d1_188",
        "SequenceVariant": [
          "SK",
          "SS"
        ],
        "SeriesDescription": "cmrr_mbep2d_bold_AP_run6",
        "SeriesNumber": 17,
        "SeriesTime": "130107.203000",
        "SliceLocation": -46.969783483275,
        "SliceThickness": 1.1000000238419,
        "SmallestImagePixelValue": 0,
        "SoftwareVersions": "syngo MR B17",
        "SpacingBetweenSlices": 1.0999997227305,
        "SpecificCharacterSet": "ISO_IR 100",
        "StudyID": "1",
        "StudyTime": "115315.687000",
        "TransmitCoilName": "32Ch_Head_7T",
        "VariableFlipAngleFlag": "N",
        "WindowCenterWidthExplanation": "Algo1",
        "dBdt": 0.0
      },
      "slices": {}
    },
    "modality": "bold",
    "run_id": 6,
    "session_id": "SES03",
    "subject_id": "S11",
    "task_id": "auditory",
    "time": {
      "samples": {
        "AcquisitionNumber": [
          1,
          2,
          3,
          4,
          5,
          6,
          7,
          8,
          9,
          10,
          11,
          12,
          13,
          14,
          15,
          16,
          17,
          18,
          19,
          20,
          21,
          22,
          23,
          24,
          25,
          26,
          27,
          28,
          29,
          30,
          31,
          32,
          33,
          34,
          35,
          36,
          37,
          38,
          39,
          40,
          41,
          42,
          43,
          44,
          45,
          46,
          47,
          48,
          49,
          50,
          51,
          52,
          53,
          54,
          55,
          56,
          57,
          58,
          59,
          60,
          61,
          62,
          63,
          64,
          65,
          66,
          67,
          68,
          69,
          70,
          71,
          72,
          73,
          74,
          75,
          76,
          77,
          78,
          79,
          80,
          81,
          82,
          83,
          84,
          85,
          86,
          87,
          88,
          89,
          90,
          91,
          92,
          93,
          94,
          95,
          96,
          97,
          98,
          99,
          100,
          101,
          102,
          103,
          104,
          105,
          106,
          107,
          108,
          109,
          110,
          111,
          112,
          113,
          114,
          115,
          116,
          117,
          118,
          119,
          120,
          121,
          122,
          123,
          124,
          125,
          126,
          127,
          128,
          129,
          130,
          131,
          132,
          133,
          134,
          135,
          136,
          137,
          138,
          139,
          140,
          141,
          142,
          143,
          144,
          145,
          146,
          147,
          148,
          149,
          150
        ],
        "AcquisitionTime": [
          "130057.750000",
          "130100.360000",
          "130102.970000",
          "130105.580000",
          "130108.190000",
          "130110.802500",
          "130113.412500",
          "130116.022500",
          "130118.632500",
          "130121.242500",
          "130123.852500",
          "130126.465000",
          "130129.075000",
          "130131.685000",
          "130134.295000",
          "130136.905000",
          "130139.517500",
          "130142.127500",
          "130144.737500",
          "130147.347500",
          "130149.957500",
          "130152.567500",
          "130155.180000",
          "130157.790000",
          "130200.400000",
          "130203.010000",
          "130205.620000",
          "130208.230000",
          "130210.842500",
          "130213.452500",
          "130216.062500",
          "130218.672500",
          "130221.282500",
          "130223.895000",
          "130226.505000",
          "130229.115000",
          "130231.725000",
          "130234.335000",
          "130236.945000",
          "130239.557500",
          "130242.167500",
          "130244.777500",
          "130247.387500",
          "130249.997500",
          "130252.607500",
          "130255.220000",
          "130257.830000",
          "130300.440000",
          "130303.050000",
          "130305.660000",
          "130308.272500",
          "130310.882500",
          "130313.492500",
          "130316.102500",
          "130318.712500",
          "130321.322500",
          "130323.935000",
          "130326.545000",
          "130329.155000",
          "130331.765000",
          "130334.375000",
          "130336.985000",
          "130339.597500",
          "130342.207500",
          "130344.817500",
          "130347.427500",
          "130350.037500",
          "130352.650000",
          "130355.260000",
          "130357.870000",
          "130400.480000",
          "130403.090000",
          "130405.700000",
          "130408.312500",
          "130410.922500",
          "130413.532500",
          "130416.142500",
          "130418.752500",
          "130421.362500",
          "130423.975000",
          "130426.585000",
          "130429.195000",
          "130431.805000",
          "130434.415000",
          "130437.027500",
          "130439.637500",
          "130442.247500",
          "130444.857500",
          "130447.467500",
          "130450.077500",
          "130452.690000",
          "130455.300000",
          "130457.910000",
          "130500.520000",
          "130503.130000",
          "130505.740000",
          "130508.352500",
          "130510.962500",
          "130513.572500",
          "130516.182500",
          "130518.792500",
          "130521.405000",
          "130524.015000",
          "130526.625000",
          "130529.235000",
          "130531.845000",
          "130534.455000",
          "130537.067500",
          "130539.677500",
          "130542.287500",
          "130544.897500",
          "130547.507500",
          "130550.117500",
          "130552.730000",
          "130555.340000",
          "130557.950000",
          "130600.560000",
          "130603.170000",
          "130605.782500",
          "130608.392500",
          "130611.002500",
          "130613.612500",
          "130616.222500",
          "130618.832500",
          "130621.445000",
          "130624.055000",
          "130626.665000",
          "130629.275000",
          "130631.885000",
          "130634.495000",
          "130637.107500",
          "130639.717500",
          "130642.327500",
          "130644.937500",
          "130647.547500",
          "130650.160000",
          "130652.770000",
          "130655.380000",
          "130657.990000",
          "130700.600000",
          "130703.210000",
          "130705.822500",
          "130708.432500",
          "130711.042500",
          "130713.652500",
          "130716.262500",
          "130718.872500",
          "130721.485000",
          "130724.095000",
          "130726.705000"
        ],
        "ContentTime": [
          "130107.203000",
          "130107.203000",
          "130107.703000",
          "130110.203000",
          "130113.203000",
          "130115.687000",
          "130118.203000",
          "130120.703000",
          "130123.203000",
          "130126.203000",
          "130128.703000",
          "130131.203000",
          "130133.703000",
          "130136.203000",
          "130139.203000",
          "130141.703000",
          "130144.203000",
          "130146.687000",
          "130149.187000",
          "130152.203000",
          "130154.687000",
          "130157.203000",
          "130159.687000",
          "130202.203000",
          "130205.203000",
          "130207.703000",
          "130210.203000",
          "130212.703000",
          "130215.203000",
          "130218.203000",
          "130220.703000",
          "130223.203000",
          "130225.687000",
          "130228.203000",
          "130231.203000",
          "130233.703000",
          "130236.203000",
          "130238.703000",
          "130241.203000",
          "130244.187000",
          "130246.687000",
          "130249.203000",
          "130251.703000",
          "130254.203000",
          "130257.203000",
          "130259.703000",
          "130302.203000",
          "130304.703000",
          "130307.203000",
          "130310.203000",
          "130312.703000",
          "130315.203000",
          "130317.703000",
          "130320.203000",
          "130323.203000",
          "130325.687000",
          "130328.203000",
          "130330.703000",
          "130333.203000",
          "130336.203000",
          "130338.687000",
          "130341.187000",
          "130343.703000",
          "130346.203000",
          "130349.203000",
          "130351.703000",
          "130354.203000",
          "130356.703000",
          "130359.203000",
          "130402.203000",
          "130404.703000",
          "130407.203000",
          "130409.703000",
          "130412.203000",
          "130415.203000",
          "130417.703000",
          "130420.203000",
          "130422.703000",
          "130425.203000",
          "130427.687000",
          "130430.703000",
          "130433.203000",
          "130435.687000",
          "130438.187000",
          "130441.203000",
          "130443.703000",
          "130446.203000",
          "130448.703000",
          "130451.203000",
          "130454.203000",
          "130456.703000",
          "130459.203000",
          "130501.703000",
          "130504.203000",
          "130507.203000",
          "130509.703000",
          "130512.203000",
          "130514.703000",
          "130517.203000",
          "130520.203000",
          "130522.703000",
          "130525.203000",
          "130527.703000",
          "130530.203000",
          "130533.187000",
          "130535.687000",
          "130538.203000",
          "130540.703000",
          "130543.203000",
          "130546.203000",
          "130548.703000",
          "130551.203000",
          "130553.703000",
          "130556.203000",
          "130559.203000",
          "130601.703000",
          "130604.203000",
          "130606.703000",
          "130609.203000",
          "130612.203000",
          "130614.703000",
          "130617.203000",
          "130619.703000",
          "130622.203000",
          "130625.203000",
          "130627.687000",
          "130630.187000",
          "130632.703000",
          "130635.203000",
          "130638.203000",
          "130640.703000",
          "130643.203000",
          "130645.687000",
          "130648.203000",
          "130651.203000",
          "130653.703000",
          "130656.203000",
          "130658.703000",
          "130701.187000",
          "130704.203000",
          "130706.703000",
          "130709.203000",
          "130711.703000",
          "130714.203000",
          "130717.203000",
          "130719.703000",
          "130722.203000",
          "130724.687000",
          "130727.187000",
          "130734.687000"
        ],
        "InstanceCreationTime": [
          "130107.203000",
          "130107.203000",
          "130107.703000",
          "130110.203000",
          "130113.203000",
          "130115.687000",
          "130118.203000",
          "130120.703000",
          "130123.203000",
          "130126.203000",
          "130128.703000",
          "130131.203000",
          "130133.703000",
          "130136.203000",
          "130139.203000",
          "130141.703000",
          "130144.203000",
          "130146.687000",
          "130149.187000",
          "130152.203000",
          "130154.687000",
          "130157.203000",
          "130159.687000",
          "130202.203000",
          "130205.203000",
          "130207.703000",
          "130210.203000",
          "130212.703000",
          "130215.203000",
          "130218.203000",
          "130220.703000",
          "130223.203000",
          "130225.687000",
          "130228.203000",
          "130231.203000",
          "130233.703000",
          "130236.203000",
          "130238.703000",
          "130241.203000",
          "130244.187000",
          "130246.687000",
          "130249.203000",
          "130251.703000",
          "130254.203000",
          "130257.203000",
          "130259.703000",
          "130302.203000",
          "130304.703000",
          "130307.203000",
          "130310.203000",
          "130312.703000",
          "130315.203000",
          "130317.703000",
          "130320.203000",
          "130323.203000",
          "130325.687000",
          "130328.203000",
          "130330.703000",
          "130333.203000",
          "130336.203000",
          "130338.687000",
          "130341.187000",
          "130343.703000",
          "130346.203000",
          "130349.203000",
          "130351.703000",
          "130354.203000",
          "130356.703000",
          "130359.203000",
          "130402.203000",
          "130404.703000",
          "130407.203000",
          "130409.703000",
          "130412.203000",
          "130415.203000",
          "130417.703000",
          "130420.203000",
          "130422.703000",
          "130425.203000",
          "130427.687000",
          "130430.703000",
          "130433.203000",
          "130435.687000",
          "130438.187000",
          "130441.203000",
          "130443.703000",
          "130446.203000",
          "130448.703000",
          "130451.203000",
          "130454.203000",
          "130456.703000",
          "130459.203000",
          "130501.703000",
          "130504.203000",
          "130507.203000",
          "130509.703000",
          "130512.203000",
          "130514.703000",
          "130517.203000",
          "130520.203000",
          "130522.703000",
          "130525.203000",
          "130527.703000",
          "130530.203000",
          "130533.187000",
          "130535.687000",
          "130538.203000",
          "130540.703000",
          "130543.203000",
          "130546.203000",
          "130548.703000",
          "130551.203000",
          "130553.703000",
          "130556.203000",
          "130559.203000",
          "130601.703000",
          "130604.203000",
          "130606.703000",
          "130609.203000",
          "130612.203000",
          "130614.703000",
          "130617.203000",
          "130619.703000",
          "130622.203000",
          "130625.203000",
          "130627.687000",
          "130630.187000",
          "130632.703000",
          "130635.203000",
          "130638.203000",
          "130640.703000",
          "130643.203000",
          "130645.687000",
          "130648.203000",
          "130651.203000",
          "130653.703000",
          "130656.203000",
          "130658.703000",
          "130701.187000",
          "130704.203000",
          "130706.703000",
          "130709.203000",
          "130711.703000",
          "130714.203000",
          "130717.203000",
          "130719.703000",
          "130722.203000",
          "130724.687000",
          "130727.187000",
          "130734.687000"
        ],
        "InstanceNumber": [
          1,
          2,
          3,
          4,
          5,
          6,
          7,
          8,
          9,
          10,
          11,
          12,
          13,
          14,
          15,
          16,
          17,
          18,
          19,
          20,
          21,
          22,
          23,
          24,
          25,
          26,
          27,
          28,
          29,
          30,
          31,
          32,
          33,
          34,
          35,
          36,
          37,
          38,
          39,
          40,
          41,
          42,
          43,
          44,
          45,
          46,
          47,
          48,
          49,
          50,
          51,
          52,
          53,
          54,
          55,
          56,
          57,
          58,
          59,
          60,
          61,
          62,
          63,
          64,
          65,
          66,
          67,
          68,
          69,
          70,
          71,
          72,
          73,
          74,
          75,
          76,
          77,
          78,
          79,
          80,
          81,
          82,
          83,
          84,
          85,
          86,
          87,
          88,
          89,
          90,
          91,
          92,
          93,
          94,
          95,
          96,
          97,
          98,
          99,
          100,
          101,
          102,
          103,
          104,
          105,
          106,
          107,
          108,
          109,
          110,
          111,
          112,
          113,
          114,
          115,
          116,
          117,
          118,
          119,
          120,
          121,
          122,
          123,
          124,
          125,
          126,
          127,
          128,
          129,
          130,
          131,
          132,
          133,
          134,
          135,
          136,
          137,
          138,
          139,
          140,
          141,
          142,
          143,
          144,
          145,
          146,
          147,
          148,
          149,
          150
        ],
        "WindowCenter": [
          870.0,
          869.0,
          869.0,
          869.0,
          870.0,
          869.0,
          869.0,
          869.0,
          869.0,
          869.0,
          868.0,
          868.0,
          868.0,
          868.0,
          868.0,
          869.0,
          870.0,
          870.0,
          870.0,
          869.0,
          868.0,
          868.0,
          869.0,
          868.0,
          869.0,
          870.0,
          869.0,
          867.0,
          867.0,
          868.0,
          868.0,
          869.0,
          869.0,
          868.0,
          869.0,
          869.0,
          869.0,
          869.0,
          870.0,
          870.0,
          869.0,
          870.0,
          870.0,
          870.0,
          869.0,
          869.0,
          869.0,
          869.0,
          869.0,
          868.0,
          870.0,
          869.0,
          868.0,
          868.0,
          868.0,
          869.0,
          869.0,
          868.0,
          869.0,
          870.0,
          869.0,
          869.0,
          869.0,
          869.0,
          869.0,
          869.0,
          869.0,
          869.0,
          869.0,
          869.0,
          868.0,
          869.0,
          869.0,
          869.0,
          869.0,
          869.0,
          869.0,
          869.0,
          869.0,
          870.0,
          870.0,
          870.0,
          870.0,
          871.0,
          871.0,
          871.0,
          870.0,
          870.0,
          869.0,
          871.0,
          872.0,
          870.0,
          870.0,
          869.0,
          868.0,
          867.0,
          868.0,
          868.0,
          869.0,
          868.0,
          869.0,
          869.0,
          869.0,
          869.0,
          869.0,
          868.0,
          868.0,
          870.0,
          870.0,
          869.0,
          870.0,
          870.0,
          869.0,
          869.0,
          870.0,
          870.0,
          869.0,
          869.0,
          869.0,
          869.0,
          869.0,
          868.0,
          868.0,
          868.0,
          869.0,
          870.0,
          870.0,
          869.0,
          869.0,
          869.0,
          869.0,
          870.0,
          870.0,
          870.0,
          870.0,
          870.0,
          871.0,
          870.0,
          870.0,
          870.0,
          870.0,
          870.0,
          870.0,
          870.0,
          870.0,
          869.0,
          869.0,
          869.0,
          869.0,
          870.0
        ],
        "WindowWidth": [
          1998.0,
          1995.0,
          1995.0,
          1996.0,
          1998.0,
          1996.0,
          1996.0,
          1997.0,
          1994.0,
          1994.0,
          1992.0,
          1990.0,
          1992.0,
          1991.0,
          1991.0,
          1996.0,
          2000.0,
          1999.0,
          1997.0,
          1994.0,
          1992.0,
          1993.0,
          1994.0,
          1990.0,
          1996.0,
          1999.0,
          1995.0,
          1989.0,
          1989.0,
          1990.0,
          1992.0,
          1996.0,
          1996.0,
          1992.0,
          1996.0,
          1996.0,
          1995.0,
          1995.0,
          1997.0,
          1998.0,
          1996.0,
          1998.0,
          2000.0,
          1997.0,
          1995.0,
          1993.0,
          1995.0,
          1992.0,
          1994.0,
          1994.0,
          1999.0,
          1995.0,
          1992.0,
          1991.0,
          1991.0,
          1993.0,
          1995.0,
          1992.0,
          1994.0,
          1998.0,
          1997.0,
          1996.0,
          1996.0,
          1995.0,
          1995.0,
          1994.0,
          1995.0,
          1997.0,
          1997.0,
          1995.0,
          1992.0,
          1993.0,
          1995.0,
          1994.0,
          1995.0,
          1995.0,
          1996.0,
          1996.0,
          1996.0,
          1999.0,
          1998.0,
          1998.0,
          2000.0,
          2002.0,
          2003.0,
          2002.0,
          1999.0,
          1997.0,
          1996.0,
          2002.0,
          2004.0,
          1998.0,
          1998.0,
          1994.0,
          1989.0,
          1988.0,
          1991.0,
          1990.0,
          1993.0,
          1993.0,
          1993.0,
          1995.0,
          1993.0,
          1992.0,
          1992.0,
          1992.0,
          1992.0,
          1996.0,
          1997.0,
          1995.0,
          1997.0,
          1997.0,
          1993.0,
          1993.0,
          1997.0,
          1998.0,
          1995.0,
          1993.0,
          1993.0,
          1995.0,
          1994.0,
          1991.0,
          1991.0,
          1990.0,
          1995.0,
          1997.0,
          1996.0,
          1994.0,
          1993.0,
          1996.0,
          1996.0,
          1998.0,
          1996.0,
          1997.0,
          1999.0,
          2000.0,
          2001.0,
          1998.0,
          1997.0,
          1998.0,
          1999.0,
          1998.0,
          1998.0,
          1996.0,
          1997.0,
          1995.0,
          1992.0,
          1994.0,
          1995.0,
          1997.0
        ]
      },
      "slices": {}
    }
  },
  "dummy_trs": 0,
  "dvars_nstd": 69.59530089201343,
  "dvars_std": 1.0533222787248318,
  "dvars_vstd": 1.0121440358389266,
  "efc": 0.5613961708162395,
  "fber": 401.6180419921875,
  "fd_mean": 0.045429410996066094,
  "fd_num": 2,
  "fd_perc": 1.3333333333333333,
  "fwhm_avg": 2.8351311617587593,
  "fwhm_x": 2.7657354123431896,
  "fwhm_y": 2.6844026003862367,
  "fwhm_z": 3.055255472546851,
  "gcor": 0.00145077,
  "gsr_x": -0.006017951760441065,
  "gsr_y": 0.04991055279970169,
  "provenance": {
    "md5sum": "a5f4db101b508c9c39a74a6facff8fea",
    "settings": {
      "fd_thres": 0.2,
      "testing": false
    },
    "software": "mriqc",
    "version": "23.0.1",
    "webapi_port": null,
    "webapi_url": "https://mriqc.nimh.nih.gov/api/v1"
  },
  "size_t": 150,
  "size_x": 188,
  "size_y": 188,
  "size_z": 46,
  "snr": 2.249538097319238,
  "spacing_tr": 2.5999999046325684,
  "spacing_x": 1.0957447290420532,
  "spacing_y": 1.0957447290420532,
  "spacing_z": 1.0999996662139893,
  "summary_bg_k": 62.61032280786611,
  "summary_bg_mad": 22.47624940631778,
  "summary_bg_mean": 80.43895721435547,
  "summary_bg_median": 46.59333419799805,
  "summary_bg_n": 1049089.0,
  "summary_bg_p05": 29.893333435058594,
  "summary_bg_p95": 228.9666748046875,
