{
  "aor": 0.0005920666666666666,
  "aqi": 0.013565816666666668,
  "bids_meta": {
    "AcquisitionMatrixPE": 188,
    "AcquisitionNumber": 1,
    "AcquisitionTime": "12:22:4.515000",
    "BandwidthPerPixelPhaseEncode": 19.46,
    "BaseResolution": 188,
    "CogAtlasID": "TODO",
    "ConversionSoftware": "dcm2niix",
    "ConversionSoftwareVersion": "v1.0.20180606 GCC4.8.5",
    "DelayTime": 1.2,
    "DerivedVendorReportedEchoSpacing": 0.000820013,
    "DeviceSerialNumber": "18930",
    "DwellTime": 1.9e-06,
    "EchoTime": 0.02,
    "EffectiveEchoSpacing": 0.000273338,
    "FlipAngle": 80,
    "ImageComments": "Unaliased_MB2_PE2",
    "ImageOrientationPatientDICOM": [
      0.998247,
      0.034978,
      -0.0477451,
      -0.0521758,
      0.139228,
      -0.988885
    ],
    "ImageType": [
      "ORIGINAL",
      "PRIMARY",
      "M",
      "MB",
      "ND",
      "MOSAIC"
    ],
    "InPlanePhaseEncodingDirectionDICOM": "COL",
    "InstitutionAddress": "Oxfordlaan_55_Maastricht_753AAF_Limburg_NL_6229_EV",
    "InstitutionName": "Scannexus",
    "InstitutionalDepartmentName": "MRI_7T",
    "MRAcquisitionType": "2D",
    "MagneticFieldStrength": 6.98,
    "Manufacturer": "Siemens",
    "ManufacturersModelName": "Investigational_Device_7T",
    "Modality": "MR",
    "MultibandAccelerationFactor": 2,
    "ParallelReductionFactorInPlane": 3,
    "PartialFourier": 0.75,
    "PatientPosition": "HFS",
    "PercentPhaseFOV": 100,
    "PhaseEncodingDirection": "j",
    "PhaseEncodingSteps": 141,
    "PhaseResolution": 1,
    "PixelBandwidth": 1400,
    "ProcedureStepDescription": "FeDem_Faruk",
    "ProtocolName": "cmrr_mbep2d_bold_AP_run1",
    "PulseSequenceDetails": "%CustomerSeq%_cmrr_mbep2d_bold",
    "ReceiveCoilName": "32Ch_Head_7T",
    "ReconMatrixPE": 188,
    "RepetitionTime": 2.6,
    "SAR": 0.0939794,
    "ScanOptions": "PFP_FS",
    "ScanningSequence": "EP",
    "SequenceName": "epfid2d1_188",
    "SequenceVariant": "SK_SS",
    "SeriesDescription": "cmrr_mbep2d_bold_AP_run1",
    "SeriesNumber": 12,
    "ShimSetting": [
      49,
      -92,
      482,
      429,
      -59,
      -52,
      -137,
      172
    ],
    "SliceThickness": 1.1,
    "SliceTiming": [
      0,
      0.7325,
      0.06,
      0.795,
      0.1225,
      0.855,
      0.1825,
      0.9175,
      0.245,
      0.9775,
      0.305,
      1.0375,
      0.3675,
      1.1,
      0.4275,
      1.16,
      0.49,
      1.2225,
      0.55,
      1.2825,
      0.61,
      1.345,
      0.6725,
      0,
      0.7325,
      0.06,
      0.795,
      0.1225,
      0.855,
      0.1825,
      0.9175,
      0.245,
      0.9775,
      0.305,
      1.0375,
      0.3675,
      1.1,
      0.4275,
      1.16,
      0.49,
      1.2225,
      0.55,
      1.2825,
      0.61,
      1.345,
      0.6725
    ],
    "SoftwareVersions": "syngo_MR_B17",
    "SpacingBetweenSlices": 1.1,
    "StationName": "MRC18930",
    "TaskName": "auditory",
    "TotalReadoutTime": 0.0511141,
    "TxRefAmp": 235,
    "dataset": "ds001942",
    "dcmmeta_affine": [
      [
        -1.093823790550232,
        -0.05717133730649948,
        0.03073599748313427,
        103.88965606689453
      ],
      [
        -0.03832700103521347,
        0.1525578647851944,
        -1.0886064767837524,
        34.36977005004883
      ],
      [
        -0.052316438406705856,
        1.0835654735565186,
        0.1548893004655838,
        -112.62718963623047
      ],
      [
        0.0,
        0.0,
        0.0,
        1.0
      ]
    ],
    "dcmmeta_reorient_transform": [
      [
        0.0,
        -1.0,
        0.0,
        187.0
      ],
      [
        1.0,
        0.0,
        0.0,
        0.0
      ],
      [
        0.0,
        0.0,
        1.0,
        0.0
      ],
      [
        0.0,
        0.0,
        0.0,
        1.0
      ]
    ],
    "dcmmeta_shape": [
      188,
      188,
      46,
      150
    ],
    "dcmmeta_slice_dim": 2,
    "dcmmeta_version": 0.6,
    "global": {
      "const": {
        "AcquisitionMatrix": [
          188,
          0,
          0,
          188
        ],
        "AngioFlag": "N",
        "BitsAllocated": 16,
        "BitsStored": 12,
        "Columns": 1316,
        "EchoNumbers": 1,
        "EchoTime": 20.0,
        "EchoTrainLength": 1,
        "FlipAngle": 80.0,
        "HighBit": 11,
        "ImageOrientationPatient": [
          0.99824693467065,
          0.03497803943101,
          -0.0477450958552,
          -0.0521757796666,
          0.13922755963807,
          -0.9888849147668
        ],
        "ImagePositionPatient": [
          -677.8706133972,
          -170.55715654583,
          730.63692076772
        ],
        "ImageType": [
          "ORIGINAL",
          "PRIMARY",
          "M",
          "MB",
          "ND",
          "MOSAIC"
        ],
        "ImagedNucleus": "1H",
        "ImagingFrequency": 297.205566,
        "InPlanePhaseEncodingDirection": "COL",
        "LargestImagePixelValue": 4095,
        "MRAcquisitionType": "2D",
        "MagneticFieldStrength": 6.98,
        "Manufacturer": "SIEMENS",
        "ManufacturerModelName": "Investigational_Device_7T",
        "Modality": "MR",
        "NumberOfAverages": 1.0,
        "NumberOfPhaseEncodingSteps": 141,
        "PercentPhaseFieldOfView": 100.0,
        "PercentSampling": 100.0,
        "PerformedProcedureStepStartTime": "115315.781000",
        "PhotometricInterpretation": "MONOCHROME2",
        "PixelBandwidth": 1400.0,
        "PixelRepresentation": 0,
        "PixelSpacing": [
          1.0957447290421,
          1.0957447290421
        ],
        "ProtocolName": "cmrr_mbep2d_bold_AP_run1",
        "RepetitionTime": 2600.0,
        "Rows": 1316,
        "SAR": 0.09397943503384,
        "SamplesPerPixel": 1,
        "ScanOptions": [
          "PFP",
          "FS"
        ],
        "ScanningSequence": "EP",
        "SequenceName": "epfid2d1_188",
        "SequenceVariant": [
          "SK",
          "SS"
        ],
        "SeriesDescription": "cmrr_mbep2d_bold_AP_run1",
        "SeriesNumber": 12,
        "SeriesTime": "122214.093000",
        "SliceLocation": -46.969783483275,
        "SliceThickness": 1.1000000238419,
        "SmallestImagePixelValue": 0,
        "SoftwareVersions": "syngo MR B17",
        "SpacingBetweenSlices": 1.0999997227305,
        "SpecificCharacterSet": "ISO_IR 100",
        "StudyID": "1",
        "StudyTime": "115315.687000",
        "TransmitCoilName": "32Ch_Head_7T",
        "VariableFlipAngleFlag": "N",
        "WindowCenterWidthExplanation": "Algo1",
        "dBdt": 0.0
      },
      "slices": {}
    },
    "modality": "bold",
    "run_id": 1,
    "session_id": "SES03",
    "subject_id": "S11",
    "task_id": "auditory",
    "time": {
      "samples": {
        "AcquisitionNumber": [
          1,
          2,
          3,
          4,
          5,
          6,
          7,
          8,
          9,
          10,
          11,
          12,
          13,
          14,
          15,
          16,
          17,
          18,
          19,
          20,
          21,
          22,
          23,
          24,
          25,
          26,
          27,
          28,
          29,
          30,
          31,
          32,
          33,
          34,
          35,
          36,
          37,
          38,
          39,
          40,
          41,
          42,
          43,
          44,
          45,
          46,
          47,
          48,
          49,
          50,
          51,
          52,
          53,
          54,
          55,
          56,
          57,
          58,
          59,
          60,
          61,
          62,
          63,
          64,
          65,
          66,
          67,
          68,
          69,
          70,
          71,
          72,
          73,
          74,
          75,
          76,
          77,
          78,
          79,
          80,
          81,
          82,
          83,
          84,
          85,
          86,
          87,
          88,
          89,
          90,
          91,
          92,
          93,
          94,
          95,
          96,
          97,
          98,
          99,
          100,
          101,
          102,
          103,
          104,
          105,
          106,
          107,
          108,
          109,
          110,
          111,
          112,
          113,
          114,
          115,
          116,
          117,
          118,
          119,
          120,
          121,
          122,
          123,
          124,
          125,
          126,
          127,
          128,
          129,
          130,
          131,
          132,
          133,
          134,
          135,
          136,
          137,
          138,
          139,
          140,
          141,
          142,
          143,
          144,
          145,
          146,
          147,
          148,
          149,
          150
        ],
        "AcquisitionTime": [
          "122204.515000",
          "122207.125000",
          "122209.735000",
          "122212.347500",
          "122214.957500",
          "122217.567500",
          "122220.177500",
          "122222.787500",
          "122225.397500",
          "122228.010000",
          "122230.620000",
          "122233.230000",
          "122235.840000",
          "122238.450000",
          "122241.060000",
          "122243.672500",
          "122246.282500",
          "122248.892500",
          "122251.502500",
          "122254.112500",
          "122256.725000",
          "122259.335000",
          "122301.945000",
          "122304.555000",
          "122307.165000",
          "122309.775000",
          "122312.387500",
          "122314.997500",
          "122317.607500",
          "122320.217500",
          "122322.827500",
          "122325.437500",
          "122328.050000",
          "122330.660000",
          "122333.270000",
          "122335.880000",
          "122338.490000",
          "122341.102500",
          "122343.712500",
          "122346.322500",
          "122348.932500",
          "122351.542500",
          "122354.152500",
          "122356.765000",
          "122359.375000",
          "122401.985000",
          "122404.595000",
          "122407.205000",
          "122409.815000",
          "122412.427500",
          "122415.037500",
          "122417.647500",
          "122420.257500",
          "122422.867500",
          "122425.480000",
          "122428.090000",
          "122430.700000",
          "122433.310000",
          "122435.920000",
          "122438.530000",
          "122441.142500",
          "122443.752500",
          "122446.362500",
          "122448.972500",
          "122451.582500",
          "122454.192500",
          "122456.805000",
          "122459.415000",
          "122502.025000",
          "122504.635000",
          "122507.245000",
          "122509.857500",
          "122512.467500",
          "122515.077500",
          "122517.687500",
          "122520.297500",
          "122522.907500",
          "122525.520000",
          "122528.130000",
          "122530.740000",
          "122533.350000",
          "122535.960000",
          "122538.570000",
          "122541.182500",
          "122543.792500",
          "122546.402500",
          "122549.012500",
          "122551.622500",
          "122554.235000",
          "122556.845000",
          "122559.455000",
          "122602.065000",
          "122604.675000",
          "122607.285000",
          "122609.897500",
          "122612.507500",
          "122615.117500",
          "122617.727500",
          "122620.337500",
          "122622.947500",
          "122625.560000",
          "122628.170000",
          "122630.780000",
          "122633.390000",
          "122636.000000",
          "122638.612500",
          "122641.222500",
          "122643.832500",
          "122646.442500",
          "122649.052500",
          "122651.662500",
          "122654.275000",
          "122656.885000",
          "122659.495000",
          "122702.105000",
          "122704.715000",
          "122707.325000",
          "122709.937500",
          "122712.547500",
          "122715.157500",
          "122717.767500",
          "122720.377500",
          "122722.990000",
          "122725.600000",
          "122728.210000",
          "122730.820000",
          "122733.430000",
          "122736.040000",
          "122738.652500",
          "122741.262500",
          "122743.872500",
          "122746.482500",
          "122749.092500",
          "122751.702500",
          "122754.315000",
          "122756.925000",
          "122759.535000",
          "122802.145000",
          "122804.755000",
          "122807.367500",
          "122809.977500",
          "122812.587500",
          "122815.197500",
          "122817.807500",
          "122820.417500",
          "122823.030000",
          "122825.640000",
          "122828.250000",
          "122830.860000",
          "122833.470000"
        ],
        "ContentTime": [
          "122214.093000",
          "122215.093000",
          "122215.093000",
          "122217.093000",
          "122219.593000",
          "122222.593000",
          "122225.093000",
          "122227.593000",
          "122230.093000",
          "122232.593000",
          "122235.593000",
          "122238.093000",
          "122240.593000",
          "122243.093000",
          "122245.593000",
          "122248.593000",
          "122251.093000",
          "122253.593000",
          "122256.093000",
          "122258.593000",
          "122301.593000",
          "122304.093000",
          "122306.593000",
          "122309.093000",
          "122311.593000",
          "122314.593000",
          "122317.093000",
          "122319.593000",
          "122322.093000",
          "122324.593000",
          "122327.593000",
          "122330.093000",
          "122332.593000",
          "122335.093000",
          "122337.593000",
          "122340.593000",
          "122343.093000",
          "122345.593000",
          "122348.093000",
          "122350.593000",
          "122353.593000",
          "122356.093000",
          "122358.593000",
          "122401.093000",
          "122403.593000",
          "122406.093000",
          "122409.093000",
          "122411.593000",
          "122414.093000",
          "122416.593000",
          "122419.593000",
          "122422.093000",
          "122424.593000",
          "122427.093000",
          "122429.593000",
          "122432.593000",
          "122435.093000",
          "122437.593000",
          "122440.093000",
          "122442.593000",
          "122445.593000",
          "122448.093000",
          "122450.593000",
          "122453.093000",
          "122455.593000",
          "122458.593000",
          "122501.093000",
          "122503.593000",
          "122506.093000",
          "122508.593000",
          "122511.093000",
          "122514.093000",
          "122516.593000",
          "122519.093000",
          "122521.593000",
          "122524.593000",
          "122527.093000",
          "122529.593000",
          "122532.093000",
          "122534.593000",
          "122537.593000",
          "122540.093000",
          "122542.593000",
          "122545.093000",
          "122547.593000",
          "122550.593000",
          "122553.093000",
          "122555.593000",
          "122558.093000",
          "122600.593000",
          "122603.593000",
          "122606.093000",
          "122608.593000",
          "122611.093000",
          "122613.593000",
          "122616.593000",
          "122619.093000",
          "122621.593000",
          "122624.093000",
          "122626.593000",
          "122629.593000",
          "122632.093000",
          "122634.593000",
          "122637.093000",
          "122639.593000",
          "122642.593000",
          "122645.093000",
          "122647.593000",
          "122650.093000",
          "122652.593000",
          "122655.593000",
          "122658.093000",
          "122700.593000",
          "122703.093000",
          "122705.593000",
          "122708.593000",
          "122711.093000",
          "122713.593000",
          "122716.093000",
          "122718.593000",
          "122721.593000",
          "122724.093000",
          "122726.593000",
          "122729.093000",
          "122731.593000",
          "122734.593000",
          "122737.093000",
          "122739.593000",
          "122742.093000",
          "122744.593000",
          "122747.593000",
          "122750.093000",
          "122752.593000",
          "122755.093000",
          "122757.593000",
          "122800.593000",
          "122803.093000",
          "122805.593000",
          "122808.093000",
          "122810.593000",
          "122813.593000",
          "122816.093000",
          "122818.593000",
          "122821.093000",
          "122823.593000",
          "122826.593000",
          "122829.093000",
          "122831.593000",
          "122834.093000",
          "122841.500000"
        ],
        "InstanceCreationTime": [
          "122214.093000",
          "122215.093000",
          "122215.093000",
          "122217.093000",
          "122219.593000",
          "122222.593000",
          "122225.093000",
          "122227.593000",
          "122230.093000",
          "122232.593000",
          "122235.593000",
          "122238.093000",
          "122240.593000",
          "122243.093000",
          "122245.593000",
          "122248.593000",
          "122251.093000",
          "122253.593000",
          "122256.093000",
          "122258.593000",
          "122301.593000",
          "122304.093000",
          "122306.593000",
          "122309.093000",
          "122311.593000",
          "122314.593000",
          "122317.093000",
          "122319.593000",
          "122322.093000",
          "122324.593000",
          "122327.593000",
          "122330.093000",
          "122332.593000",
          "122335.093000",
          "122337.593000",
          "122340.593000",
          "122343.093000",
          "122345.593000",
          "122348.093000",
          "122350.593000",
          "122353.593000",
          "122356.093000",
          "122358.593000",
          "122401.093000",
          "122403.593000",
          "122406.093000",
          "122409.093000",
          "122411.593000",
          "122414.093000",
          "122416.593000",
          "122419.593000",
          "122422.093000",
          "122424.593000",
          "122427.093000",
          "122429.593000",
          "122432.593000",
          "122435.093000",
          "122437.593000",
          "122440.093000",
          "122442.593000",
          "122445.593000",
          "122448.093000",
          "122450.593000",
          "122453.093000",
          "122455.593000",
          "122458.593000",
          "122501.093000",
          "122503.593000",
          "122506.093000",
          "122508.593000",
          "122511.093000",
          "122514.093000",
          "122516.593000",
          "122519.093000",
          "122521.593000",
          "122524.593000",
          "122527.093000",
          "122529.593000",
          "122532.093000",
          "122534.593000",
          "122537.593000",
          "122540.093000",
          "122542.593000",
          "122545.093000",
          "122547.593000",
          "122550.593000",
          "122553.093000",
          "122555.593000",
          "122558.093000",
          "122600.593000",
          "122603.593000",
          "122606.093000",
          "122608.593000",
          "122611.093000",
          "122613.593000",
          "122616.593000",
          "122619.093000",
          "122621.593000",
          "122624.093000",
          "122626.593000",
          "122629.593000",
          "122632.093000",
          "122634.593000",
          "122637.093000",
          "122639.593000",
          "122642.593000",
          "122645.093000",
          "122647.593000",
          "122650.093000",
          "122652.593000",
          "122655.593000",
          "122658.093000",
          "122700.593000",
          "122703.093000",
          "122705.593000",
          "122708.593000",
          "122711.093000",
          "122713.593000",
          "122716.093000",
          "122718.593000",
          "122721.593000",
          "122724.093000",
          "122726.593000",
          "122729.093000",
          "122731.593000",
          "122734.593000",
          "122737.093000",
          "122739.593000",
          "122742.093000",
          "122744.593000",
          "122747.593000",
          "122750.093000",
          "122752.593000",
          "122755.093000",
          "122757.593000",
          "122800.593000",
          "122803.093000",
          "122805.593000",
          "122808.093000",
          "122810.593000",
          "122813.593000",
          "122816.093000",
          "122818.593000",
          "122821.093000",
          "122823.593000",
          "122826.593000",
          "122829.093000",
          "122831.593000",
          "122834.093000",
          "122841.500000"
        ],
        "InstanceNumber": [
          1,
          2,
          3,
          4,
          5,
          6,
          7,
          8,
          9,
          10,
          11,
          12,
          13,
          14,
          15,
          16,
          17,
          18,
          19,
          20,
          21,
          22,
          23,
          24,
          25,
          26,
          27,
          28,
          29,
          30,
          31,
          32,
          33,
          34,
          35,
          36,
          37,
          38,
          39,
          40,
          41,
          42,
          43,
          44,
          45,
          46,
          47,
          48,
          49,
          50,
          51,
          52,
          53,
          54,
          55,
          56,
          57,
          58,
          59,
          60,
          61,
          62,
          63,
          64,
          65,
          66,
          67,
          68,
          69,
          70,
          71,
          72,
          73,
          74,
          75,
          76,
          77,
          78,
          79,
          80,
          81,
          82,
          83,
          84,
          85,
          86,
          87,
          88,
          89,
          90,
          91,
          92,
          93,
          94,
          95,
          96,
          97,
          98,
          99,
          100,
          101,
          102,
          103,
          104,
          105,
          106,
          107,
          108,
          109,
          110,
          111,
          112,
          113,
          114,
          115,
          116,
          117,
          118,
          119,
          120,
          121,
          122,
          123,
          124,
          125,
          126,
          127,
          128,
          129,
          130,
          131,
          132,
          133,
          134,
          135,
          136,
          137,
          138,
          139,
          140,
          141,
          142,
          143,
          144,
          145,
          146,
          147,
          148,
          149,
          150
        ],
        "WindowCenter": [
          866.0,
          865.0,
          864.0,
          865.0,
          865.0,
          864.0,
          863.0,
          864.0,
          865.0,
          865.0,
          865.0,
          865.0,
          864.0,
          865.0,
          864.0,
          864.0,
          864.0,
          865.0,
          866.0,
          866.0,
          865.0,
          864.0,
          865.0,
          865.0,
          866.0,
          865.0,
          865.0,
          865.0,
          864.0,
          864.0,
          865.0,
          865.0,
          864.0,
          864.0,
          864.0,
          864.0,
          864.0,
          864.0,
          864.0,
          865.0,
          865.0,
          865.0,
          865.0,
          864.0,
          864.0,
          865.0,
          865.0,
          865.0,
          865.0,
          864.0,
          864.0,
          864.0,
          864.0,
          865.0,
          865.0,
          865.0,
          865.0,
          864.0,
          865.0,
          865.0,
          865.0,
          865.0,
          866.0,
          865.0,
          864.0,
          865.0,
          865.0,
          866.0,
          866.0,
          865.0,
          864.0,
          865.0,
          865.0,
          864.0,
          865.0,
          865.0,
          865.0,
          864.0,
          864.0,
          864.0,
          864.0,
          864.0,
          864.0,
          864.0,
          866.0,
          866.0,
          866.0,
          865.0,
          865.0,
          864.0,
          865.0,
          867.0,
          867.0,
          867.0,
          866.0,
          865.0,
          865.0,
          865.0,
          865.0,
          865.0,
          865.0,
          865.0,
          866.0,
          865.0,
          865.0,
          866.0,
          865.0,
          865.0,
          865.0,
          865.0,
          865.0,
          865.0,
          866.0,
          865.0,
          866.0,
          865.0,
          865.0,
          865.0,
          867.0,
          867.0,
          866.0,
          865.0,
          865.0,
          865.0,
          864.0,
          863.0,
          864.0,
          865.0,
          865.0,
          865.0,
          865.0,
          866.0,
          866.0,
          866.0,
          865.0,
          865.0,
          865.0,
          866.0,
          866.0,
          866.0,
          865.0,
          864.0,
          865.0,
          865.0,
          866.0,
          865.0,
          865.0,
          866.0,
          865.0,
          863.0
        ],
        "WindowWidth": [
          1984.0,
          1978.0,
          1978.0,
          1980.0,
          1978.0,
          1975.0,
          1974.0,
          1979.0,
          1979.0,
          1979.0,
          1978.0,
          1978.0,
          1978.0,
          1979.0,
          1977.0,
          1976.0,
          1977.0,
          1981.0,
          1981.0,
          1981.0,
          1980.0,
          1977.0,
          1979.0,
          1980.0,
          1982.0,
          1978.0,
          1980.0,
          1978.0,
          1976.0,
          1978.0,
          1979.0,
          1979.0,
          1977.0,
          1977.0,
          1975.0,
          1976.0,
          1978.0,
          1977.0,
          1977.0,
          1981.0,
          1979.0,
          1979.0,
          1980.0,
          1976.0,
          1976.0,
          1979.0,
          1979.0,
          1979.0,
          1980.0,
          1976.0,
          1974.0,
          1975.0,
          1978.0,
          1979.0,
          1978.0,
          1981.0,
          1978.0,
          1977.0,
          1981.0,
          1979.0,
          1979.0,
          1981.0,
          1983.0,
          1978.0,
          1977.0,
          1978.0,
          1980.0,
          1984.0,
          1984.0,
          1977.0,
          1976.0,
          1981.0,
          1979.0,
          1977.0,
          1980.0,
          1981.0,
          1978.0,
          1976.0,
          1976.0,
          1976.0,
          1976.0,
          1976.0,
          1975.0,
          1977.0,
          1982.0,
          1981.0,
          1981.0,
          1981.0,
          1980.0,
          1977.0,
          1980.0,
          1989.0,
          1988.0,
          1985.0,
          1981.0,
          1979.0,
          1978.0,
          1978.0,
          1981.0,
          1981.0,
          1980.0,
          1981.0,
          1983.0,
          1980.0,
          1979.0,
          1983.0,
          1980.0,
          1978.0,
          1980.0,
          1980.0,
          1980.0,
          1981.0,
          1981.0,
          1980.0,
          1982.0,
          1981.0,
          1978.0,
          1981.0,
          1986.0,
          1988.0,
          1982.0,
          1981.0,
          1979.0,
          1977.0,
          1974.0,
          1973.0,
          1974.0,
          1980.0,
          1981.0,
          1978.0,
          1979.0,
          1983.0,
          1983.0,
          1982.0,
          1980.0,
          1978.0,
          1981.0,
          1983.0,
          1981.0,
          1981.0,
          1979.0,
          1977.0,
          1981.0,
          1980.0,
          1982.0,
          1981.0,
          1981.0,
          1983.0,
          1978.0,
          1974.0
        ]
      },
      "slices": {}
    }
  },
  "dummy_trs": 0,
  "dvars_nstd": 66.21546600644297,
  "dvars_std": 1.0283568561073826,
  "dvars_vstd": 1.0092098727516787,
  "efc": 0.5621622413907426,
  "fber": 404.92169189453125,
  "fd_mean": 0.04183478331149537,
  "fd_num": 1,
  "fd_perc": 0.6666666666666666,
  "fwhm_avg": 2.831871466932215,
  "fwhm_x": 2.769157742289763,
  "fwhm_y": 2.679337552065309,
  "fwhm_z": 3.0471191064415737,
  "gcor": 0.00150947,
  "gsr_x": -0.006669779308140278,
  "gsr_y": 0.04989641532301903,
  "provenance": {
    "md5sum": "a08066f5c19c5cfe0791bc7d4a26e1e8",
    "settings": {
      "fd_thres": 0.2,
      "testing": false
    },
    "software": "mriqc",
    "version": "22.0.6",
    "webapi_port": null,
    "webapi_url": "https://mriqc.nimh.nih.gov/api/v1"
  },
  "size_t": 150,
  "size_x": 188,
  "size_y": 188,
  "size_z": 46,
  "snr": 2.2718905938749705,
  "spacing_tr": 2.5999999046325684,
  "spacing_x": 1.0957447290420532,
  "spacing_y": 1.0957447290420532,
  "spacing_z": 1.0999996662139893,
  "summary_bg_k": 62.663754158302794,
  "summary_bg_mad": 21.843673063027776,
  "summary_bg_mean": 79.10269165039062,
  "summary_bg_median": 46.013336181640625,
  "summary_bg_n": 1047973.0,
  "summary_bg_p05": 29.573333740234375,
