{
  "aor": 0.0006202666666666666,
  "aqi": 0.014356579333333333,
  "bids_meta": {
    "AcquisitionMatrixPE": 188,
    "AcquisitionNumber": 1,
    "AcquisitionTime": "12:29:47.035000",
    "BandwidthPerPixelPhaseEncode": 19.46,
    "BaseResolution": 188,
    "ConversionSoftware": "dcm2niix",
    "ConversionSoftwareVersion": "v1.0.20180606 GCC4.8.5",
    "DelayTime": 1.2,
    "DerivedVendorReportedEchoSpacing": 0.000820013,
    "DeviceSerialNumber": "18930",
    "DwellTime": 1.9e-06,
    "EchoTime": 0.02,
    "EffectiveEchoSpacing": 0.000273338,
    "FlipAngle": 80,
    "ImageComments": "Unaliased_MB2_PE2",
    "ImageOrientationPatientDICOM": [
      0.998247,
      0.034978,
      -0.0477451,
      -0.0521758,
      0.139228,
      -0.988885
    ],
    "ImageType": [
      "ORIGINAL",
      "PRIMARY",
      "M",
      "MB",
      "ND",
      "MOSAIC"
    ],
    "InPlanePhaseEncodingDirectionDICOM": "COL",
    "InstitutionAddress": "Oxfordlaan_55_Maastricht_753AAF_Limburg_NL_6229_EV",
    "InstitutionName": "Scannexus",
    "InstitutionalDepartmentName": "MRI_7T",
    "MRAcquisitionType": "2D",
    "MagneticFieldStrength": 6.98,
    "Manufacturer": "Siemens",
    "ManufacturersModelName": "Investigational_Device_7T",
    "Modality": "MR",
    "MultibandAccelerationFactor": 2,
    "ParallelReductionFactorInPlane": 3,
    "PartialFourier": 0.75,
    "PatientPosition": "HFS",
    "PercentPhaseFOV": 100,
    "PhaseEncodingDirection": "j",
    "PhaseEncodingSteps": 141,
    "PhaseResolution": 1,
    "PixelBandwidth": 1400,
    "ProcedureStepDescription": "FeDem_Faruk",
    "ProtocolName": "cmrr_mbep2d_bold_AP_run2",
    "PulseSequenceDetails": "%CustomerSeq%_cmrr_mbep2d_bold",
    "ReceiveCoilName": "32Ch_Head_7T",
    "ReconMatrixPE": 188,
    "RepetitionTime": 2.6,
    "SAR": 0.0947549,
    "ScanOptions": "PFP_FS",
    "ScanningSequence": "EP",
    "SequenceName": "epfid2d1_188",
    "SequenceVariant": "SK_SS",
    "SeriesDescription": "cmrr_mbep2d_bold_AP_run2",
    "SeriesNumber": 13,
    "ShimSetting": [
      49,
      -92,
      482,
      429,
      -59,
      -52,
      -137,
      172
    ],
    "SliceThickness": 1.1,
    "SliceTiming": [
      0,
      0.7325,
      0.06,
      0.7925,
      0.12,
      0.855,
      0.1825,
      0.915,
      0.2425,
      0.9775,
      0.305,
      1.0375,
      0.365,
      1.0975,
      0.4275,
      1.16,
      0.4875,
      1.22,
      0.55,
      1.2825,
      0.61,
      1.3425,
      0.67,
      0,
      0.7325,
      0.06,
      0.7925,
      0.12,
      0.855,
      0.1825,
      0.915,
      0.2425,
      0.9775,
      0.305,
      1.0375,
      0.365,
      1.0975,
      0.4275,
      1.16,
      0.4875,
      1.22,
      0.55,
      1.2825,
      0.61,
      1.3425,
      0.67
    ],
    "SoftwareVersions": "syngo_MR_B17",
    "SpacingBetweenSlices": 1.1,
    "StationName": "MRC18930",
    "TaskName": "auditory",
    "TotalReadoutTime": 0.0511141,
    "TxRefAmp": 235,
    "dataset": "ds001942",
    "dcmmeta_affine": [
      [
        -1.093823790550232,
        -0.05717133730649948,
        0.03073599748313427,
        103.88965606689453
      ],
      [
        -0.03832700103521347,
        0.1525578647851944,
        -1.0886064767837524,
        34.36977005004883
      ],
      [
        -0.052316438406705856,
        1.0835654735565186,
        0.1548893004655838,
        -112.62718963623047
      ],
      [
        0.0,
        0.0,
        0.0,
        1.0
      ]
    ],
    "dcmmeta_reorient_transform": [
      [
        0.0,
        -1.0,
        0.0,
        187.0
      ],
      [
        1.0,
        0.0,
        0.0,
        0.0
      ],
      [
        0.0,
        0.0,
        1.0,
        0.0
      ],
      [
        0.0,
        0.0,
        0.0,
        1.0
      ]
    ],
    "dcmmeta_shape": [
      188,
      188,
      46,
      150
    ],
    "dcmmeta_slice_dim": 2,
    "dcmmeta_version": 0.6,
    "global": {
      "const": {
        "AcquisitionMatrix": [
          188,
          0,
          0,
          188
        ],
        "AngioFlag": "N",
        "BitsAllocated": 16,
        "BitsStored": 12,
        "Columns": 1316,
        "EchoNumbers": 1,
        "EchoTime": 20.0,
        "EchoTrainLength": 1,
        "FlipAngle": 80.0,
        "HighBit": 11,
        "ImageOrientationPatient": [
          0.99824693467065,
          0.03497803943101,
          -0.0477450958552,
          -0.0521757796666,
          0.13922755963807,
          -0.9888849147668
        ],
        "ImagePositionPatient": [
          -677.8706133972,
          -170.55715654583,
          730.63692076772
        ],
        "ImageType": [
          "ORIGINAL",
          "PRIMARY",
          "M",
          "MB",
          "ND",
          "MOSAIC"
        ],
        "ImagedNucleus": "1H",
        "ImagingFrequency": 297.205571,
        "InPlanePhaseEncodingDirection": "COL",
        "LargestImagePixelValue": 4095,
        "MRAcquisitionType": "2D",
        "MagneticFieldStrength": 6.98,
        "Manufacturer": "SIEMENS",
        "ManufacturerModelName": "Investigational_Device_7T",
        "Modality": "MR",
        "NumberOfAverages": 1.0,
        "NumberOfPhaseEncodingSteps": 141,
        "PercentPhaseFieldOfView": 100.0,
        "PercentSampling": 100.0,
        "PerformedProcedureStepStartTime": "115315.781000",
        "PhotometricInterpretation": "MONOCHROME2",
        "PixelBandwidth": 1400.0,
        "PixelRepresentation": 0,
        "PixelSpacing": [
          1.0957447290421,
          1.0957447290421
        ],
        "ProtocolName": "cmrr_mbep2d_bold_AP_run2",
        "RepetitionTime": 2600.0,
        "Rows": 1316,
        "SAR": 0.09475488692024,
        "SamplesPerPixel": 1,
        "ScanOptions": [
          "PFP",
          "FS"
        ],
        "ScanningSequence": "EP",
        "SequenceName": "epfid2d1_188",
        "SequenceVariant": [
          "SK",
          "SS"
        ],
        "SeriesDescription": "cmrr_mbep2d_bold_AP_run2",
        "SeriesNumber": 13,
        "SeriesTime": "122956.656000",
        "SliceLocation": -46.969783483275,
        "SliceThickness": 1.1000000238419,
        "SmallestImagePixelValue": 0,
        "SoftwareVersions": "syngo MR B17",
        "SpacingBetweenSlices": 1.0999997227305,
        "SpecificCharacterSet": "ISO_IR 100",
        "StudyID": "1",
        "StudyTime": "115315.687000",
        "TransmitCoilName": "32Ch_Head_7T",
        "VariableFlipAngleFlag": "N",
        "WindowCenterWidthExplanation": "Algo1",
        "dBdt": 0.0
      },
      "slices": {}
    },
    "modality": "bold",
    "run_id": 2,
    "session_id": "SES03",
    "subject_id": "S11",
    "task_id": "auditory",
    "time": {
      "samples": {
        "AcquisitionNumber": [
          1,
          2,
          3,
          4,
          5,
          6,
          7,
          8,
          9,
          10,
          11,
          12,
          13,
          14,
          15,
          16,
          17,
          18,
          19,
          20,
          21,
          22,
          23,
          24,
          25,
          26,
          27,
          28,
          29,
          30,
          31,
          32,
          33,
          34,
          35,
          36,
          37,
          38,
          39,
          40,
          41,
          42,
          43,
          44,
          45,
          46,
          47,
          48,
          49,
          50,
          51,
          52,
          53,
          54,
          55,
          56,
          57,
          58,
          59,
          60,
          61,
          62,
          63,
          64,
          65,
          66,
          67,
          68,
          69,
          70,
          71,
          72,
          73,
          74,
          75,
          76,
          77,
          78,
          79,
          80,
          81,
          82,
          83,
          84,
          85,
          86,
          87,
          88,
          89,
          90,
          91,
          92,
          93,
          94,
          95,
          96,
          97,
          98,
          99,
          100,
          101,
          102,
          103,
          104,
          105,
          106,
          107,
          108,
          109,
          110,
          111,
          112,
          113,
          114,
          115,
          116,
          117,
          118,
          119,
          120,
          121,
          122,
          123,
          124,
          125,
          126,
          127,
          128,
          129,
          130,
          131,
          132,
          133,
          134,
          135,
          136,
          137,
          138,
          139,
          140,
          141,
          142,
          143,
          144,
          145,
          146,
          147,
          148,
          149,
          150
        ],
        "AcquisitionTime": [
          "122947.035000",
          "122949.645000",
          "122952.255000",
          "122954.865000",
          "122957.475000",
          "123000.085000",
          "123002.697500",
          "123005.307500",
          "123007.917500",
          "123010.527500",
          "123013.137500",
          "123015.747500",
          "123018.360000",
          "123020.970000",
          "123023.580000",
          "123026.190000",
          "123028.800000",
          "123031.412500",
          "123034.022500",
          "123036.632500",
          "123039.242500",
          "123041.852500",
          "123044.462500",
          "123047.075000",
          "123049.685000",
          "123052.295000",
          "123054.905000",
          "123057.515000",
          "123100.125000",
          "123102.737500",
          "123105.347500",
          "123107.957500",
          "123110.567500",
          "123113.177500",
          "123115.790000",
          "123118.400000",
          "123121.010000",
          "123123.620000",
          "123126.230000",
          "123128.840000",
          "123131.452500",
          "123134.062500",
          "123136.672500",
          "123139.282500",
          "123141.892500",
          "123144.502500",
          "123147.115000",
          "123149.725000",
          "123152.335000",
          "123154.945000",
          "123157.555000",
          "123200.167500",
          "123202.777500",
          "123205.387500",
          "123207.997500",
          "123210.607500",
          "123213.217500",
          "123215.830000",
          "123218.440000",
          "123221.050000",
          "123223.660000",
          "123226.270000",
          "123228.880000",
          "123231.492500",
          "123234.102500",
          "123236.712500",
          "123239.322500",
          "123241.932500",
          "123244.545000",
          "123247.155000",
          "123249.765000",
          "123252.375000",
          "123254.985000",
          "123257.595000",
          "123300.207500",
          "123302.817500",
          "123305.427500",
          "123308.037500",
          "123310.647500",
          "123313.257500",
          "123315.870000",
          "123318.480000",
          "123321.090000",
          "123323.700000",
          "123326.310000",
          "123328.922500",
          "123331.532500",
          "123334.142500",
          "123336.752500",
          "123339.362500",
          "123341.972500",
          "123344.585000",
          "123347.195000",
          "123349.805000",
          "123352.415000",
          "123355.025000",
          "123357.635000",
          "123400.247500",
          "123402.857500",
          "123405.467500",
          "123408.077500",
          "123410.687500",
          "123413.300000",
          "123415.910000",
          "123418.520000",
          "123421.130000",
          "123423.740000",
          "123426.350000",
          "123428.962500",
          "123431.572500",
          "123434.182500",
          "123436.792500",
          "123439.402500",
          "123442.012500",
          "123444.625000",
          "123447.235000",
          "123449.845000",
          "123452.455000",
          "123455.065000",
          "123457.677500",
          "123500.287500",
          "123502.897500",
          "123505.507500",
          "123508.117500",
          "123510.727500",
          "123513.340000",
          "123515.950000",
          "123518.560000",
          "123521.170000",
          "123523.780000",
          "123526.392500",
          "123529.002500",
          "123531.612500",
          "123534.222500",
          "123536.832500",
          "123539.442500",
          "123542.055000",
          "123544.665000",
          "123547.275000",
          "123549.885000",
          "123552.495000",
          "123555.105000",
          "123557.717500",
          "123600.327500",
          "123602.937500",
          "123605.547500",
          "123608.157500",
          "123610.770000",
          "123613.380000",
          "123615.990000"
        ],
        "ContentTime": [
          "122956.671000",
          "122957.656000",
          "122957.656000",
          "122959.656000",
          "123002.156000",
          "123004.656000",
          "123007.156000",
          "123010.156000",
          "123012.656000",
          "123015.156000",
          "123017.656000",
          "123020.156000",
          "123023.156000",
          "123025.656000",
          "123028.156000",
          "123030.656000",
          "123033.156000",
          "123036.156000",
          "123038.656000",
          "123041.156000",
          "123043.656000",
          "123046.156000",
          "123049.156000",
          "123051.656000",
          "123054.156000",
          "123056.656000",
          "123059.156000",
          "123102.156000",
          "123104.656000",
          "123107.156000",
          "123109.656000",
          "123112.156000",
          "123115.156000",
          "123117.656000",
          "123120.156000",
          "123122.656000",
          "123125.156000",
          "123128.156000",
          "123130.656000",
          "123133.156000",
          "123135.656000",
          "123138.156000",
          "123141.156000",
          "123143.656000",
          "123146.156000",
          "123148.656000",
          "123151.156000",
          "123154.156000",
          "123156.656000",
          "123159.156000",
          "123201.656000",
          "123204.156000",
          "123207.156000",
          "123209.656000",
          "123212.156000",
          "123214.656000",
          "123217.156000",
          "123220.156000",
          "123222.656000",
          "123225.156000",
          "123227.656000",
          "123230.156000",
          "123233.156000",
          "123235.656000",
          "123238.156000",
          "123240.656000",
          "123243.156000",
          "123246.156000",
          "123248.656000",
          "123251.156000",
          "123253.656000",
          "123256.156000",
          "123259.156000",
          "123301.656000",
          "123304.156000",
          "123306.656000",
          "123309.156000",
          "123312.156000",
          "123314.656000",
          "123317.156000",
          "123319.656000",
          "123322.156000",
          "123325.156000",
          "123327.656000",
          "123330.156000",
          "123332.656000",
          "123335.156000",
          "123338.156000",
          "123340.656000",
          "123343.156000",
          "123345.656000",
          "123348.656000",
          "123351.156000",
          "123353.656000",
          "123356.156000",
          "123358.656000",
          "123401.156000",
          "123404.156000",
          "123406.656000",
          "123409.156000",
          "123411.656000",
          "123414.156000",
          "123417.156000",
          "123419.656000",
          "123422.156000",
          "123424.656000",
          "123427.156000",
          "123430.156000",
          "123432.656000",
          "123435.156000",
          "123437.656000",
          "123440.156000",
          "123443.156000",
          "123445.656000",
          "123448.156000",
          "123450.656000",
          "123453.156000",
          "123456.156000",
          "123458.656000",
          "123501.156000",
          "123503.656000",
          "123506.156000",
          "123509.156000",
          "123511.671000",
          "123514.156000",
          "123516.656000",
          "123519.156000",
          "123522.156000",
          "123524.656000",
          "123527.156000",
          "123529.656000",
          "123532.156000",
          "123535.156000",
          "123537.656000",
          "123540.156000",
          "123542.656000",
          "123545.156000",
          "123548.156000",
          "123550.656000",
          "123553.156000",
          "123555.656000",
          "123558.156000",
          "123601.156000",
          "123603.656000",
          "123606.156000",
          "123608.656000",
          "123611.156000",
          "123614.156000",
          "123616.656000",
          "123623.906000"
        ],
        "InstanceCreationTime": [
          "122956.671000",
          "122957.656000",
          "122957.656000",
          "122959.656000",
          "123002.156000",
          "123004.656000",
          "123007.156000",
          "123010.156000",
          "123012.656000",
          "123015.156000",
          "123017.656000",
          "123020.156000",
          "123023.156000",
          "123025.656000",
          "123028.156000",
          "123030.656000",
          "123033.156000",
          "123036.156000",
          "123038.656000",
          "123041.156000",
          "123043.656000",
          "123046.156000",
          "123049.156000",
          "123051.656000",
          "123054.156000",
          "123056.656000",
          "123059.156000",
          "123102.156000",
          "123104.656000",
          "123107.156000",
          "123109.656000",
          "123112.156000",
          "123115.156000",
          "123117.656000",
          "123120.156000",
          "123122.656000",
          "123125.156000",
          "123128.156000",
          "123130.656000",
          "123133.156000",
          "123135.656000",
          "123138.156000",
          "123141.156000",
          "123143.656000",
          "123146.156000",
          "123148.656000",
          "123151.156000",
          "123154.156000",
          "123156.656000",
          "123159.156000",
          "123201.656000",
          "123204.156000",
          "123207.156000",
          "123209.656000",
          "123212.156000",
          "123214.656000",
          "123217.156000",
          "123220.156000",
          "123222.656000",
          "123225.156000",
          "123227.656000",
          "123230.156000",
          "123233.156000",
          "123235.656000",
          "123238.156000",
          "123240.656000",
          "123243.156000",
          "123246.156000",
          "123248.656000",
          "123251.156000",
          "123253.656000",
          "123256.156000",
          "123259.156000",
          "123301.656000",
          "123304.156000",
          "123306.656000",
          "123309.156000",
          "123312.156000",
          "123314.656000",
          "123317.156000",
          "123319.656000",
          "123322.156000",
          "123325.156000",
          "123327.656000",
          "123330.156000",
          "123332.656000",
          "123335.156000",
          "123338.156000",
          "123340.656000",
          "123343.156000",
          "123345.656000",
          "123348.656000",
          "123351.156000",
          "123353.656000",
          "123356.156000",
          "123358.656000",
          "123401.156000",
          "123404.156000",
          "123406.656000",
          "123409.156000",
          "123411.656000",
          "123414.156000",
          "123417.156000",
          "123419.656000",
          "123422.156000",
          "123424.656000",
          "123427.156000",
          "123430.156000",
          "123432.656000",
          "123435.156000",
          "123437.656000",
          "123440.156000",
          "123443.156000",
          "123445.656000",
          "123448.156000",
          "123450.656000",
          "123453.156000",
          "123456.156000",
          "123458.656000",
          "123501.156000",
          "123503.656000",
          "123506.156000",
          "123509.156000",
          "123511.671000",
          "123514.156000",
          "123516.656000",
          "123519.156000",
          "123522.156000",
          "123524.656000",
          "123527.156000",
          "123529.656000",
          "123532.156000",
          "123535.156000",
          "123537.656000",
          "123540.156000",
          "123542.656000",
          "123545.156000",
          "123548.156000",
          "123550.656000",
          "123553.156000",
          "123555.656000",
          "123558.156000",
          "123601.156000",
          "123603.656000",
          "123606.156000",
          "123608.656000",
          "123611.156000",
          "123614.156000",
          "123616.656000",
          "123623.906000"
        ],
        "InstanceNumber": [
          1,
          2,
          3,
          4,
          5,
          6,
          7,
          8,
          9,
          10,
          11,
          12,
          13,
          14,
          15,
          16,
          17,
          18,
          19,
          20,
          21,
          22,
          23,
          24,
          25,
          26,
          27,
          28,
          29,
          30,
          31,
          32,
          33,
          34,
          35,
          36,
          37,
          38,
          39,
          40,
          41,
          42,
          43,
          44,
          45,
          46,
          47,
          48,
          49,
          50,
          51,
          52,
          53,
          54,
          55,
          56,
          57,
          58,
          59,
          60,
          61,
          62,
          63,
          64,
          65,
          66,
          67,
          68,
          69,
          70,
          71,
          72,
          73,
          74,
          75,
          76,
          77,
          78,
          79,
          80,
          81,
          82,
          83,
          84,
          85,
          86,
          87,
          88,
          89,
          90,
          91,
          92,
          93,
          94,
          95,
          96,
          97,
          98,
          99,
          100,
          101,
          102,
          103,
          104,
          105,
          106,
          107,
          108,
          109,
          110,
          111,
          112,
          113,
          114,
          115,
          116,
          117,
          118,
          119,
          120,
          121,
          122,
          123,
          124,
          125,
          126,
          127,
          128,
          129,
          130,
          131,
          132,
          133,
          134,
          135,
          136,
          137,
          138,
          139,
          140,
          141,
          142,
          143,
          144,
          145,
          146,
          147,
          148,
          149,
          150
        ],
        "WindowCenter": [
          866.0,
          863.0,
          863.0,
          862.0,
          862.0,
          863.0,
          863.0,
          862.0,
          863.0,
          863.0,
          863.0,
          863.0,
          864.0,
          864.0,
          864.0,
          864.0,
          865.0,
          867.0,
          865.0,
          864.0,
          864.0,
          864.0,
          864.0,
          864.0,
          865.0,
          865.0,
          864.0,
          864.0,
          864.0,
          864.0,
          863.0,
          863.0,
          864.0,
          865.0,
          865.0,
          865.0,
          865.0,
          864.0,
          864.0,
          864.0,
          865.0,
          865.0,
          865.0,
          865.0,
          865.0,
          865.0,
          866.0,
          867.0,
          867.0,
          865.0,
          864.0,
          865.0,
          864.0,
          864.0,
          863.0,
          863.0,
          863.0,
          863.0,
          864.0,
          865.0,
          864.0,
          864.0,
          864.0,
          863.0,
          865.0,
          865.0,
          864.0,
          863.0,
          863.0,
          864.0,
          865.0,
          865.0,
          864.0,
          864.0,
          864.0,
          864.0,
          864.0,
          864.0,
          866.0,
          865.0,
          864.0,
          864.0,
          864.0,
          864.0,
          864.0,
          864.0,
          864.0,
          865.0,
          865.0,
          865.0,
          865.0,
          865.0,
          867.0,
          867.0,
          866.0,
          865.0,
          864.0,
          863.0,
          863.0,
          863.0,
          864.0,
          865.0,
          864.0,
          863.0,
          863.0,
          862.0,
          863.0,
          864.0,
          865.0,
          865.0,
          864.0,
          864.0,
          863.0,
          863.0,
          863.0,
          865.0,
          865.0,
          865.0,
          864.0,
          864.0,
          864.0,
          865.0,
          865.0,
          866.0,
          866.0,
          865.0,
          865.0,
          865.0,
          866.0,
          866.0,
          866.0,
          865.0,
          865.0,
          865.0,
          865.0,
          866.0,
          866.0,
          866.0,
          866.0,
          865.0,
          865.0,
          865.0,
          865.0,
          864.0,
          864.0,
          863.0,
          864.0,
          865.0,
          865.0,
          865.0
        ],
        "WindowWidth": [
          1981.0,
          1973.0,
          1972.0,
          1970.0,
          1970.0,
          1974.0,
          1971.0,
          1969.0,
          1973.0,
          1973.0,
          1972.0,
          1972.0,
          1978.0,
          1979.0,
          1977.0,
          1977.0,
          1982.0,
          1986.0,
          1980.0,
          1976.0,
          1978.0,
          1976.0,
          1977.0,
          1978.0,
          1978.0,
          1980.0,
          1978.0,
          1976.0,
          1978.0,
          1975.0,
          1975.0,
          1974.0,
          1979.0,
          1980.0,
          1981.0,
          1979.0,
          1980.0,
          1978.0,
          1977.0,
          1977.0,
          1980.0,
          1982.0,
          1982.0,
          1983.0,
          1982.0,
          1980.0,
          1984.0,
          1989.0,
          1986.0,
          1981.0,
          1978.0,
          1979.0,
          1978.0,
          1978.0,
          1972.0,
          1973.0,
          1974.0,
          1972.0,
          1978.0,
          1979.0,
          1976.0,
          1978.0,
          1976.0,
          1974.0,
          1981.0,
          1982.0,
          1976.0,
          1974.0,
          1974.0,
          1978.0,
          1982.0,
          1981.0,
          1978.0,
          1978.0,
          1979.0,
          1976.0,
          1976.0,
          1978.0,
          1985.0,
          1981.0,
          1977.0,
          1976.0,
          1977.0,
          1976.0,
          1977.0,
          1978.0,
          1980.0,
          1979.0,
          1981.0,
          1980.0,
          1981.0,
          1982.0,
          1987.0,
          1988.0,
          1986.0,
          1980.0,
          1976.0,
          1974.0,
          1973.0,
          1974.0,
          1977.0,
          1980.0,
          1978.0,
          1974.0,
          1971.0,
          1971.0,
          1973.0,
          1979.0,
          1981.0,
          1981.0,
          1978.0,
          1976.0,
          1973.0,
          1972.0,
          1974.0,
          1981.0,
          1982.0,
          1978.0,
          1976.0,
          1979.0,
          1979.0,
          1981.0,
          1983.0,
          1986.0,
          1985.0,
          1981.0,
          1980.0,
          1981.0,
          1986.0,
          1984.0,
          1984.0,
          1982.0,
          1980.0,
          1980.0,
          1982.0,
          1985.0,
          1982.0,
          1984.0,
          1984.0,
          1981.0,
          1979.0,
          1980.0,
          1979.0,
          1976.0,
          1975.0,
          1974.0,
          1979.0,
          1980.0,
          1980.0,
          1980.0
        ]
      },
      "slices": {}
    }
  },
  "dummy_trs": 0,
  "dvars_nstd": 67.7739027905369,
  "dvars_std": 1.033616503691275,
  "dvars_vstd": 1.0098998534899333,
  "efc": 0.5618432818422112,
  "fber": 407.55426025390625,
  "fd_mean": 0.06111872240135618,
  "fd_num": 2,
  "fd_perc": 1.3333333333333333,
  "fwhm_avg": 2.832411102533264,
  "fwhm_x": 2.7677523054583704,
  "fwhm_y": 2.6785800763704675,
  "fwhm_z": 3.0509009257709536,
  "gcor": 0.00247127,
  "gsr_x": -0.005866227205842733,
  "gsr_y": 0.04883161187171936,
  "provenance": {
    "md5sum": "88298072aa7d5476b2ae84a4c3d07ff3",
    "settings": {
      "fd_thres": 0.2,
      "testing": false
    },
    "software": "mriqc",
    "version": "23.0.1",
    "webapi_port": null,
    "webapi_url": "https://mriqc.nimh.nih.gov/api/v1"
  },
  "size_t": 150,
  "size_x": 188,
  "size_y": 188,
  "size_z": 46,
  "snr": 2.279284210854025,
  "spacing_tr": 2.5999999046325684,
  "spacing_x": 1.0957447290420532,
  "spacing_y": 1.0957447290420532,
  "spacing_z": 1.0999996662139893,
  "summary_bg_k": 62.96366848855773,
  "summary_bg_mad": 21.7250649986609,
  "summary_bg_mean": 79.05510711669922,
  "summary_bg_median": 45.92000198364258,
  "summary_bg_n": 1048940.0,
  "summary_bg_p05": 29.666667938232422,
  "summary_bg_p95": 223.6470008850093,
