{
  "aor": 0.0007002666666666668,
  "aqi": 0.012505089333333332,
  "bids_meta": {
    "AcquisitionMatrixPE": 188,
    "AcquisitionNumber": 1,
    "AcquisitionTime": "13:26:46.007500",
    "BandwidthPerPixelPhaseEncode": 19.46,
    "BaseResolution": 188,
    "CogAtlasID": "TODO",
    "ConversionSoftware": "dcm2niix",
    "ConversionSoftwareVersion": "v1.0.20180606 GCC4.8.5",
    "DelayTime": 1.2,
    "DerivedVendorReportedEchoSpacing": 0.000820013,
    "DeviceSerialNumber": "18930",
    "DwellTime": 1.9e-06,
    "EchoTime": 0.02,
    "EffectiveEchoSpacing": 0.000273338,
    "FlipAngle": 80,
    "ImageComments": "Unaliased_MB2_PE2",
    "ImageOrientationPatientDICOM": [
      0.998247,
      0.034978,
      -0.0477451,
      -0.0521758,
      0.139228,
      -0.988885
    ],
    "ImageType": [
      "ORIGINAL",
      "PRIMARY",
      "M",
      "MB",
      "ND",
      "MOSAIC"
    ],
    "InPlanePhaseEncodingDirectionDICOM": "COL",
    "InstitutionAddress": "Oxfordlaan_55_Maastricht_753AAF_Limburg_NL_6229_EV",
    "InstitutionName": "Scannexus",
    "InstitutionalDepartmentName": "MRI_7T",
    "MRAcquisitionType": "2D",
    "MagneticFieldStrength": 6.98,
    "Manufacturer": "Siemens",
    "ManufacturersModelName": "Investigational_Device_7T",
    "Modality": "MR",
    "MultibandAccelerationFactor": 2,
    "ParallelReductionFactorInPlane": 3,
    "PartialFourier": 0.75,
    "PatientPosition": "HFS",
    "PercentPhaseFOV": 100,
    "PhaseEncodingDirection": "j",
    "PhaseEncodingSteps": 141,
    "PhaseResolution": 1,
    "PixelBandwidth": 1400,
    "ProcedureStepDescription": "FeDem_Faruk",
    "ProtocolName": "cmrr_mbep2d_bold_AP_run9",
    "PulseSequenceDetails": "%CustomerSeq%_cmrr_mbep2d_bold",
    "ReceiveCoilName": "32Ch_Head_7T",
    "ReconMatrixPE": 188,
    "RepetitionTime": 2.6,
    "SAR": 0.094686,
    "ScanOptions": "PFP_FS",
    "ScanningSequence": "EP",
    "SequenceName": "epfid2d1_188",
    "SequenceVariant": "SK_SS",
    "SeriesDescription": "cmrr_mbep2d_bold_AP_run9",
    "SeriesNumber": 22,
    "ShimSetting": [
      49,
      -92,
      482,
      429,
      -59,
      -52,
      -137,
      172
    ],
    "SliceThickness": 1.1,
    "SliceTiming": [
      0,
      0.7325,
      0.06,
      0.795,
      0.1225,
      0.855,
      0.1825,
      0.915,
      0.245,
      0.9775,
      0.305,
      1.0375,
      0.365,
      1.1,
      0.4275,
      1.16,
      0.4875,
      1.2225,
      0.55,
      1.2825,
      0.61,
      1.345,
      0.6725,
      0,
      0.7325,
      0.06,
      0.795,
      0.1225,
      0.855,
      0.1825,
      0.915,
      0.245,
      0.9775,
      0.305,
      1.0375,
      0.365,
      1.1,
      0.4275,
      1.16,
      0.4875,
      1.2225,
      0.55,
      1.2825,
      0.61,
      1.345,
      0.6725
    ],
    "SoftwareVersions": "syngo_MR_B17",
    "SpacingBetweenSlices": 1.1,
    "StationName": "MRC18930",
    "TaskName": "auditory",
    "TotalReadoutTime": 0.0511141,
    "TxRefAmp": 235,
    "dataset": "ds001942",
    "dcmmeta_affine": [
      [
        -1.093823790550232,
        -0.05717133730649948,
        0.03073599748313427,
        103.88965606689453
      ],
      [
        -0.03832700103521347,
        0.1525578647851944,
        -1.0886064767837524,
        34.36977005004883
      ],
      [
        -0.052316438406705856,
        1.0835654735565186,
        0.1548893004655838,
        -112.62718963623047
      ],
      [
        0.0,
        0.0,
        0.0,
        1.0
      ]
    ],
    "dcmmeta_reorient_transform": [
      [
        0.0,
        -1.0,
        0.0,
        187.0
      ],
      [
        1.0,
        0.0,
        0.0,
        0.0
      ],
      [
        0.0,
        0.0,
        1.0,
        0.0
      ],
      [
        0.0,
        0.0,
        0.0,
        1.0
      ]
    ],
    "dcmmeta_shape": [
      188,
      188,
      46,
      150
    ],
    "dcmmeta_slice_dim": 2,
    "dcmmeta_version": 0.6,
    "global": {
      "const": {
        "AcquisitionMatrix": [
          188,
          0,
          0,
          188
        ],
        "AngioFlag": "N",
        "BitsAllocated": 16,
        "BitsStored": 12,
        "Columns": 1316,
        "EchoNumbers": 1,
        "EchoTime": 20.0,
        "EchoTrainLength": 1,
        "FlipAngle": 80.0,
        "HighBit": 11,
        "ImageOrientationPatient": [
          0.99824693467065,
          0.03497803943101,
          -0.0477450958552,
          -0.0521757796666,
          0.13922755963807,
          -0.9888849147668
        ],
        "ImagePositionPatient": [
          -677.8706133972,
          -170.55715654583,
          730.63692076772
        ],
        "ImageType": [
          "ORIGINAL",
          "PRIMARY",
          "M",
          "MB",
          "ND",
          "MOSAIC"
        ],
        "ImagedNucleus": "1H",
        "ImagingFrequency": 297.205589,
        "InPlanePhaseEncodingDirection": "COL",
        "LargestImagePixelValue": 4095,
        "MRAcquisitionType": "2D",
        "MagneticFieldStrength": 6.98,
        "Manufacturer": "SIEMENS",
        "ManufacturerModelName": "Investigational_Device_7T",
        "Modality": "MR",
        "NumberOfAverages": 1.0,
        "NumberOfPhaseEncodingSteps": 141,
        "PercentPhaseFieldOfView": 100.0,
        "PercentSampling": 100.0,
        "PerformedProcedureStepStartTime": "115315.781000",
        "PhotometricInterpretation": "MONOCHROME2",
        "PixelBandwidth": 1400.0,
        "PixelRepresentation": 0,
        "PixelSpacing": [
          1.0957447290421,
          1.0957447290421
        ],
        "ProtocolName": "cmrr_mbep2d_bold_AP_run9",
        "RepetitionTime": 2600.0,
        "Rows": 1316,
        "SAR": 0.09468599440446,
        "SamplesPerPixel": 1,
        "ScanOptions": [
          "PFP",
          "FS"
        ],
        "ScanningSequence": "EP",
        "SequenceName": "epfid2d1_188",
        "SequenceVariant": [
          "SK",
          "SS"
        ],
        "SeriesDescription": "cmrr_mbep2d_bold_AP_run9",
        "SeriesNumber": 22,
        "SeriesTime": "132655.687000",
        "SliceLocation": -46.969783483275,
        "SliceThickness": 1.1000000238419,
        "SmallestImagePixelValue": 0,
        "SoftwareVersions": "syngo MR B17",
        "SpacingBetweenSlices": 1.0999997227305,
        "SpecificCharacterSet": "ISO_IR 100",
        "StudyID": "1",
        "StudyTime": "115315.687000",
        "TransmitCoilName": "32Ch_Head_7T",
        "VariableFlipAngleFlag": "N",
        "WindowCenterWidthExplanation": "Algo1",
        "dBdt": 0.0
      },
      "slices": {}
    },
    "modality": "bold",
    "run_id": 9,
    "session_id": "SES03",
    "subject_id": "S11",
    "task_id": "auditory",
    "time": {
      "samples": {
        "AcquisitionNumber": [
          1,
          2,
          3,
          4,
          5,
          6,
          7,
          8,
          9,
          10,
          11,
          12,
          13,
          14,
          15,
          16,
          17,
          18,
          19,
          20,
          21,
          22,
          23,
          24,
          25,
          26,
          27,
          28,
          29,
          30,
          31,
          32,
          33,
          34,
          35,
          36,
          37,
          38,
          39,
          40,
          41,
          42,
          43,
          44,
          45,
          46,
          47,
          48,
          49,
          50,
          51,
          52,
          53,
          54,
          55,
          56,
          57,
          58,
          59,
          60,
          61,
          62,
          63,
          64,
          65,
          66,
          67,
          68,
          69,
          70,
          71,
          72,
          73,
          74,
          75,
          76,
          77,
          78,
          79,
          80,
          81,
          82,
          83,
          84,
          85,
          86,
          87,
          88,
          89,
          90,
          91,
          92,
          93,
          94,
          95,
          96,
          97,
          98,
          99,
          100,
          101,
          102,
          103,
          104,
          105,
          106,
          107,
          108,
          109,
          110,
          111,
          112,
          113,
          114,
          115,
          116,
          117,
          118,
          119,
          120,
          121,
          122,
          123,
          124,
          125,
          126,
          127,
          128,
          129,
          130,
          131,
          132,
          133,
          134,
          135,
          136,
          137,
          138,
          139,
          140,
          141,
          142,
          143,
          144,
          145,
          146,
          147,
          148,
          149,
          150
        ],
        "AcquisitionTime": [
          "132646.007500",
          "132648.617500",
          "132651.227500",
          "132653.837500",
          "132656.450000",
          "132659.060000",
          "132701.670000",
          "132704.280000",
          "132706.890000",
          "132709.500000",
          "132712.112500",
          "132714.722500",
          "132717.332500",
          "132719.942500",
          "132722.552500",
          "132725.162500",
          "132727.775000",
          "132730.385000",
          "132732.995000",
          "132735.605000",
          "132738.215000",
          "132740.827500",
          "132743.437500",
          "132746.047500",
          "132748.657500",
          "132751.267500",
          "132753.877500",
          "132756.490000",
          "132759.100000",
          "132801.710000",
          "132804.320000",
          "132806.930000",
          "132809.540000",
          "132812.152500",
          "132814.762500",
          "132817.372500",
          "132819.982500",
          "132822.592500",
          "132825.205000",
          "132827.815000",
          "132830.425000",
          "132833.035000",
          "132835.645000",
          "132838.255000",
          "132840.867500",
          "132843.477500",
          "132846.087500",
          "132848.697500",
          "132851.307500",
          "132853.917500",
          "132856.530000",
          "132859.140000",
          "132901.750000",
          "132904.360000",
          "132906.970000",
          "132909.582500",
          "132912.192500",
          "132914.802500",
          "132917.412500",
          "132920.022500",
          "132922.632500",
          "132925.245000",
          "132927.855000",
          "132930.465000",
          "132933.075000",
          "132935.685000",
          "132938.295000",
          "132940.907500",
          "132943.517500",
          "132946.127500",
          "132948.737500",
          "132951.347500",
          "132953.960000",
          "132956.570000",
          "132959.180000",
          "133001.790000",
          "133004.400000",
          "133007.010000",
          "133009.622500",
          "133012.232500",
          "133014.842500",
          "133017.452500",
          "133020.062500",
          "133022.672500",
          "133025.285000",
          "133027.895000",
          "133030.505000",
          "133033.115000",
          "133035.725000",
          "133038.337500",
          "133040.947500",
          "133043.557500",
          "133046.167500",
          "133048.777500",
          "133051.387500",
          "133054.000000",
          "133056.610000",
          "133059.220000",
          "133101.830000",
          "133104.440000",
          "133107.050000",
          "133109.662500",
          "133112.272500",
          "133114.882500",
          "133117.492500",
          "133120.102500",
          "133122.715000",
          "133125.325000",
          "133127.935000",
          "133130.545000",
          "133133.155000",
          "133135.765000",
          "133138.377500",
          "133140.987500",
          "133143.597500",
          "133146.207500",
          "133148.817500",
          "133151.427500",
          "133154.040000",
          "133156.650000",
          "133159.260000",
          "133201.870000",
          "133204.480000",
          "133207.092500",
          "133209.702500",
          "133212.312500",
          "133214.922500",
          "133217.532500",
          "133220.142500",
          "133222.755000",
          "133225.365000",
          "133227.975000",
          "133230.585000",
          "133233.195000",
          "133235.805000",
          "133238.417500",
          "133241.027500",
          "133243.637500",
          "133246.247500",
          "133248.857500",
          "133251.470000",
          "133254.080000",
          "133256.690000",
          "133259.300000",
          "133301.910000",
          "133304.520000",
          "133307.132500",
          "133309.742500",
          "133312.352500",
          "133314.962500"
        ],
        "ContentTime": [
          "132655.687000",
          "132656.187000",
          "132656.687000",
          "132659.187000",
          "132701.687000",
          "132704.187000",
          "132706.687000",
          "132709.687000",
          "132712.187000",
          "132714.687000",
          "132717.187000",
          "132719.687000",
          "132722.687000",
          "132725.187000",
          "132727.687000",
          "132730.187000",
          "132732.687000",
          "132735.687000",
          "132738.187000",
          "132740.687000",
          "132743.187000",
          "132745.687000",
          "132748.687000",
          "132751.187000",
          "132753.687000",
          "132756.187000",
          "132758.687000",
          "132801.687000",
          "132804.187000",
          "132806.687000",
          "132809.187000",
          "132811.687000",
          "132814.687000",
          "132817.187000",
          "132819.687000",
          "132822.187000",
          "132824.687000",
          "132827.687000",
          "132830.187000",
          "132832.687000",
          "132835.187000",
          "132837.687000",
          "132840.687000",
          "132843.187000",
          "132845.687000",
          "132848.187000",
          "132850.687000",
          "132853.687000",
          "132856.187000",
          "132858.687000",
          "132901.187000",
          "132903.687000",
          "132906.687000",
          "132909.187000",
          "132911.687000",
          "132914.187000",
          "132916.687000",
          "132919.687000",
          "132922.187000",
          "132924.687000",
          "132927.187000",
          "132929.687000",
          "132932.687000",
          "132935.187000",
          "132937.687000",
          "132940.187000",
          "132942.687000",
          "132945.687000",
          "132948.187000",
          "132950.687000",
          "132953.187000",
          "132955.687000",
          "132958.687000",
          "133001.187000",
          "133003.687000",
          "133006.187000",
          "133008.687000",
          "133011.687000",
          "133014.187000",
          "133016.687000",
          "133019.187000",
          "133021.687000",
          "133024.687000",
          "133027.187000",
          "133029.687000",
          "133032.187000",
          "133034.687000",
          "133037.687000",
          "133040.187000",
          "133042.687000",
          "133045.187000",
          "133047.687000",
          "133050.687000",
          "133053.187000",
          "133055.687000",
          "133058.187000",
          "133100.687000",
          "133103.687000",
          "133106.187000",
          "133108.687000",
          "133111.187000",
          "133113.687000",
          "133116.687000",
          "133119.187000",
          "133121.687000",
          "133124.187000",
          "133126.687000",
          "133129.687000",
          "133132.187000",
          "133134.687000",
          "133137.187000",
          "133139.687000",
          "133142.687000",
          "133145.187000",
          "133147.687000",
          "133150.187000",
          "133152.687000",
          "133155.687000",
          "133158.187000",
          "133200.687000",
          "133203.187000",
          "133205.687000",
          "133208.687000",
          "133211.187000",
          "133213.687000",
          "133216.187000",
          "133218.687000",
          "133221.687000",
          "133224.187000",
          "133226.687000",
          "133229.187000",
          "133231.687000",
          "133234.687000",
          "133237.187000",
          "133239.687000",
          "133242.187000",
          "133244.687000",
          "133247.687000",
          "133250.187000",
          "133252.687000",
          "133255.187000",
          "133257.687000",
          "133300.687000",
          "133303.187000",
          "133305.687000",
          "133308.187000",
          "133310.687000",
          "133313.687000",
          "133316.187000",
          "133323.437000"
        ],
        "InstanceCreationTime": [
          "132655.687000",
          "132656.187000",
          "132656.687000",
          "132659.187000",
          "132701.687000",
          "132704.187000",
          "132706.687000",
          "132709.687000",
          "132712.187000",
          "132714.687000",
          "132717.187000",
          "132719.687000",
          "132722.687000",
          "132725.187000",
          "132727.687000",
          "132730.187000",
          "132732.687000",
          "132735.687000",
          "132738.187000",
          "132740.687000",
          "132743.187000",
          "132745.687000",
          "132748.687000",
          "132751.187000",
          "132753.687000",
          "132756.187000",
          "132758.687000",
          "132801.687000",
          "132804.187000",
          "132806.687000",
          "132809.187000",
          "132811.687000",
          "132814.687000",
          "132817.187000",
          "132819.687000",
          "132822.187000",
          "132824.687000",
          "132827.687000",
          "132830.187000",
          "132832.687000",
          "132835.187000",
          "132837.687000",
          "132840.687000",
          "132843.187000",
          "132845.687000",
          "132848.187000",
          "132850.687000",
          "132853.687000",
          "132856.187000",
          "132858.687000",
          "132901.187000",
          "132903.687000",
          "132906.687000",
          "132909.187000",
          "132911.687000",
          "132914.187000",
          "132916.687000",
          "132919.687000",
          "132922.187000",
          "132924.687000",
          "132927.187000",
          "132929.687000",
          "132932.687000",
          "132935.187000",
          "132937.687000",
          "132940.187000",
          "132942.687000",
          "132945.687000",
          "132948.187000",
          "132950.687000",
          "132953.187000",
          "132955.687000",
          "132958.687000",
          "133001.187000",
          "133003.687000",
          "133006.187000",
          "133008.687000",
          "133011.687000",
          "133014.187000",
          "133016.687000",
          "133019.187000",
          "133021.687000",
          "133024.687000",
          "133027.187000",
          "133029.687000",
          "133032.187000",
          "133034.687000",
          "133037.687000",
          "133040.187000",
          "133042.687000",
          "133045.187000",
          "133047.687000",
          "133050.687000",
          "133053.187000",
          "133055.687000",
          "133058.187000",
          "133100.687000",
          "133103.687000",
          "133106.187000",
          "133108.687000",
          "133111.187000",
          "133113.687000",
          "133116.687000",
          "133119.187000",
          "133121.687000",
          "133124.187000",
          "133126.687000",
          "133129.687000",
          "133132.187000",
          "133134.687000",
          "133137.187000",
          "133139.687000",
          "133142.687000",
          "133145.187000",
          "133147.687000",
          "133150.187000",
          "133152.687000",
          "133155.687000",
          "133158.187000",
          "133200.687000",
          "133203.187000",
          "133205.687000",
          "133208.687000",
          "133211.187000",
          "133213.687000",
          "133216.187000",
          "133218.687000",
          "133221.687000",
          "133224.187000",
          "133226.687000",
          "133229.187000",
          "133231.687000",
          "133234.687000",
          "133237.187000",
          "133239.687000",
          "133242.187000",
          "133244.687000",
          "133247.687000",
          "133250.187000",
          "133252.687000",
          "133255.187000",
          "133257.687000",
          "133300.687000",
          "133303.187000",
          "133305.687000",
          "133308.187000",
          "133310.687000",
          "133313.687000",
          "133316.187000",
          "133323.437000"
        ],
        "InstanceNumber": [
          1,
          2,
          3,
          4,
          5,
          6,
          7,
          8,
          9,
          10,
          11,
          12,
          13,
          14,
          15,
          16,
          17,
          18,
          19,
          20,
          21,
          22,
          23,
          24,
          25,
          26,
          27,
          28,
          29,
          30,
          31,
          32,
          33,
          34,
          35,
          36,
          37,
          38,
          39,
          40,
          41,
          42,
          43,
          44,
          45,
          46,
          47,
          48,
          49,
          50,
          51,
          52,
          53,
          54,
          55,
          56,
          57,
          58,
          59,
          60,
          61,
          62,
          63,
          64,
          65,
          66,
          67,
          68,
          69,
          70,
          71,
          72,
          73,
          74,
          75,
          76,
          77,
          78,
          79,
          80,
          81,
          82,
          83,
          84,
          85,
          86,
          87,
          88,
          89,
          90,
          91,
          92,
          93,
          94,
          95,
          96,
          97,
          98,
          99,
          100,
          101,
          102,
          103,
          104,
          105,
          106,
          107,
          108,
          109,
          110,
          111,
          112,
          113,
          114,
          115,
          116,
          117,
          118,
          119,
          120,
          121,
          122,
          123,
          124,
          125,
          126,
          127,
          128,
          129,
          130,
          131,
          132,
          133,
          134,
          135,
          136,
          137,
          138,
          139,
          140,
          141,
          142,
          143,
          144,
          145,
          146,
          147,
          148,
          149,
          150
        ],
        "WindowCenter": [
          870.0,
          869.0,
          869.0,
          868.0,
          868.0,
          869.0,
          869.0,
          869.0,
          868.0,
          868.0,
          869.0,
          870.0,
          869.0,
          869.0,
          869.0,
          869.0,
          868.0,
          868.0,
          868.0,
          868.0,
          868.0,
          868.0,
          869.0,
          869.0,
          869.0,
          869.0,
          869.0,
          869.0,
          868.0,
          869.0,
          870.0,
          869.0,
          869.0,
          869.0,
          868.0,
          868.0,
          869.0,
          869.0,
          869.0,
          869.0,
          869.0,
          869.0,
          869.0,
          869.0,
          869.0,
          869.0,
          869.0,
          869.0,
          868.0,
          868.0,
          869.0,
          869.0,
          869.0,
          869.0,
          869.0,
          868.0,
          869.0,
          870.0,
          870.0,
          869.0,
          870.0,
          869.0,
          868.0,
          868.0,
          869.0,
          868.0,
          868.0,
          868.0,
          867.0,
          868.0,
          869.0,
          868.0,
          868.0,
          868.0,
          868.0,
          867.0,
          868.0,
          867.0,
          868.0,
          869.0,
          868.0,
          869.0,
          869.0,
          869.0,
          868.0,
          869.0,
          869.0,
          868.0,
          869.0,
          869.0,
          869.0,
          868.0,
          868.0,
          869.0,
          869.0,
          869.0,
          869.0,
          869.0,
          870.0,
          870.0,
          868.0,
          869.0,
          869.0,
          869.0,
          870.0,
          869.0,
          870.0,
          871.0,
          870.0,
          870.0,
          869.0,
          871.0,
          872.0,
          871.0,
          872.0,
          872.0,
          871.0,
          870.0,
          870.0,
          871.0,
          869.0,
          868.0,
          868.0,
          869.0,
          868.0,
          870.0,
          870.0,
          869.0,
          869.0,
          869.0,
          870.0,
          870.0,
          869.0,
          869.0,
          869.0,
          869.0,
          870.0,
          869.0,
          870.0,
          871.0,
          870.0,
          870.0,
          870.0,
          869.0,
          869.0,
          870.0,
          870.0,
          870.0,
          870.0,
          870.0
        ],
        "WindowWidth": [
          1997.0,
          1994.0,
          1994.0,
          1992.0,
          1991.0,
          1993.0,
          1993.0,
          1993.0,
          1992.0,
          1992.0,
          1994.0,
          1997.0,
          1994.0,
          1993.0,
          1994.0,
          1995.0,
          1992.0,
          1991.0,
          1991.0,
          1992.0,
          1990.0,
          1992.0,
          1993.0,
          1993.0,
          1995.0,
          1994.0,
          1995.0,
          1992.0,
          1991.0,
          1993.0,
          1997.0,
          1995.0,
          1992.0,
          1993.0,
          1991.0,
          1992.0,
          1996.0,
          1993.0,
          1995.0,
          1993.0,
          1996.0,
          1994.0,
          1992.0,
          1995.0,
          1994.0,
          1994.0,
          1992.0,
          1993.0,
          1992.0,
          1992.0,
          1995.0,
          1994.0,
          1995.0,
          1996.0,
          1995.0,
          1992.0,
          1993.0,
          1998.0,
          1998.0,
          1995.0,
          1999.0,
          1993.0,
          1991.0,
          1991.0,
          1993.0,
          1992.0,
          1989.0,
          1989.0,
          1988.0,
          1992.0,
          1993.0,
          1992.0,
          1989.0,
          1989.0,
          1989.0,
          1988.0,
          1990.0,
          1988.0,
          1990.0,
          1994.0,
          1992.0,
          1994.0,
          1994.0,
          1994.0,
          1991.0,
          1993.0,
          1992.0,
          1991.0,
          1993.0,
          1996.0,
          1995.0,
          1990.0,
          1992.0,
          1993.0,
          1995.0,
          1994.0,
          1993.0,
          1995.0,
          1998.0,
          1995.0,
          1991.0,
          1996.0,
          1995.0,
          1996.0,
          1998.0,
          1996.0,
          1998.0,
          2000.0,
          1998.0,
          1996.0,
          1995.0,
          2001.0,
          2003.0,
          2003.0,
          2004.0,
          2004.0,
          2000.0,
          1998.0,
          1999.0,
          1998.0,
          1995.0,
          1991.0,
          1991.0,
          1992.0,
          1991.0,
          1996.0,
          1997.0,
          1993.0,
          1993.0,
          1995.0,
          1996.0,
          1996.0,
          1994.0,
          1994.0,
          1992.0,
          1994.0,
          1997.0,
          1995.0,
          1999.0,
          1999.0,
          1999.0,
          1998.0,
          1996.0,
          1995.0,
          1996.0,
          1996.0,
          1997.0,
          1997.0,
          1997.0,
          1997.0
        ]
      },
      "slices": {}
    }
  },
  "dummy_trs": 0,
  "dvars_nstd": 71.40533355114091,
  "dvars_std": 1.071649460805369,
  "dvars_vstd": 1.018167755167785,
  "efc": 0.5616801604881436,
  "fber": 397.72552490234375,
  "fd_mean": 0.03973086335536046,
  "fd_num": 0,
  "fd_perc": 0.0,
  "fwhm_avg": 2.8410508213291052,
  "fwhm_x": 2.7710833732730347,
  "fwhm_y": 2.6872499789017854,
  "fwhm_z": 3.0648191118124957,
  "gcor": 0.00166288,
  "gsr_x": -0.00517956493422389,
  "gsr_y": 0.049471937119960785,
  "provenance": {
    "md5sum": "d9ec3b1284e0e03a5f2c139a6f2d733f",
    "settings": {
      "fd_thres": 0.2,
      "testing": false
    },
    "software": "mriqc",
    "version": "22.0.6",
    "webapi_port": null,
    "webapi_url": "https://mriqc.nimh.nih.gov/api/v1"
  },
  "size_t": 150,
  "size_x": 188,
  "size_y": 188,
  "size_z": 46,
  "snr": 2.233414074543322,
  "spacing_tr": 2.5999999046325684,
  "spacing_x": 1.0957447290420532,
  "spacing_y": 1.0957447290420532,
  "spacing_z": 1.0999996662139893,
  "summary_bg_k": 63.71478986514785,
  "summary_bg_mad": 22.367524640354983,
  "summary_bg_mean": 80.93728637695312,
  "summary_bg_median": 46.586666107177734,
  "summary_bg_n": 1048482.0,
  "summary_bg_p05": 29.940000534057617,
  "summary_bg_p95": 230.8400115966797,
