{
  "aor": 0.0008041203703703704,
  "aqi": 0.012904153703703703,
  "bids_meta": {
    "AcquisitionMatrixPE": 188,
    "AcquisitionNumber": 1,
    "AcquisitionTime": "13:53:25.170000",
    "BandwidthPerPixelPhaseEncode": 19.46,
    "BaseResolution": 188,
    "ConversionSoftware": "dcm2niix",
    "ConversionSoftwareVersion": "v1.0.20180606 GCC4.8.5",
    "DelayTime": 1.2,
    "DerivedVendorReportedEchoSpacing": 0.000820013,
    "DeviceSerialNumber": "18930",
    "DwellTime": 1.9e-06,
    "EchoTime": 0.02,
    "EffectiveEchoSpacing": 0.000273338,
    "FlipAngle": 80,
    "ImageComments": "Unaliased_MB2_PE2",
    "ImageOrientationPatientDICOM": [
      0.999989,
      -0.00342541,
      -0.00325005,
      -0.00275336,
      0.136169,
      -0.990682
    ],
    "ImageType": [
      "ORIGINAL",
      "PRIMARY",
      "M",
      "MB",
      "ND",
      "MOSAIC"
    ],
    "InPlanePhaseEncodingDirectionDICOM": "COL",
    "InstitutionAddress": "Oxfordlaan_55_Maastricht_Limburg_NL_6229_EV",
    "InstitutionName": "Scannexus",
    "InstitutionalDepartmentName": "MRI_7T",
    "MRAcquisitionType": "2D",
    "MagneticFieldStrength": 6.98,
    "Manufacturer": "Siemens",
    "ManufacturersModelName": "Investigational_Device_7T",
    "Modality": "MR",
    "MultibandAccelerationFactor": 2,
    "ParallelReductionFactorInPlane": 3,
    "PartialFourier": 0.75,
    "PatientPosition": "HFS",
    "PercentPhaseFOV": 100,
    "PhaseEncodingDirection": "j",
    "PhaseEncodingSteps": 141,
    "PhaseResolution": 1,
    "PixelBandwidth": 1400,
    "ProcedureStepDescription": "FeDem_Faruk",
    "ProtocolName": "cmrr_mbep2d_bold_AP_run7",
    "PulseSequenceDetails": "%CustomerSeq%_cmrr_mbep2d_bold",
    "ReceiveCoilName": "32Ch_Head_7T",
    "ReconMatrixPE": 188,
    "RepetitionTime": 2.6,
    "SAR": 0.0852954,
    "ScanOptions": "PFP_FS",
    "ScanningSequence": "EP",
    "SequenceName": "epfid2d1_188",
    "SequenceVariant": "SK_SS",
    "SeriesDescription": "cmrr_mbep2d_bold_AP_run7",
    "SeriesNumber": 16,
    "ShimSetting": [
      117,
      -139,
      415,
      467,
      -71,
      -134,
      50,
      133
    ],
    "SliceThickness": 1.1,
    "SliceTiming": [
      0,
      0.7325,
      0.06,
      0.795,
      0.1225,
      0.855,
      0.1825,
      0.915,
      0.245,
      0.9775,
      0.305,
      1.0375,
      0.365,
      1.1,
      0.4275,
      1.16,
      0.4875,
      1.2225,
      0.55,
      1.2825,
      0.61,
      1.345,
      0.6725,
      0,
      0.7325,
      0.06,
      0.795,
      0.1225,
      0.855,
      0.1825,
      0.915,
      0.245,
      0.9775,
      0.305,
      1.0375,
      0.365,
      1.1,
      0.4275,
      1.16,
      0.4875,
      1.2225,
      0.55,
      1.2825,
      0.61,
      1.345,
      0.6725
    ],
    "SoftwareVersions": "syngo_MR_B17",
    "SpacingBetweenSlices": 1.1,
    "StationName": "MRC18930",
    "TaskName": "auditory",
    "TotalReadoutTime": 0.0511141,
    "TxRefAmp": 255,
    "dataset": "ds001942",
    "dcmmeta_affine": [
      [
        -1.095732569694519,
        -0.0030169780366122723,
        -0.004219649825245142,
        104.67474365234375
      ],
      [
        0.0037533759605139494,
        0.1492059826850891,
        -1.089747428894043,
        30.216896057128906
      ],
      [
        -0.00356122013181448,
        1.0855344533920288,
        0.14977332949638367,
        -116.87645721435547
      ],
      [
        0.0,
        0.0,
        0.0,
        1.0
      ]
    ],
    "dcmmeta_reorient_transform": [
      [
        0.0,
        -1.0,
        0.0,
        187.0
      ],
      [
        1.0,
        0.0,
        0.0,
        0.0
      ],
      [
        0.0,
        0.0,
        1.0,
        0.0
      ],
      [
        0.0,
        0.0,
        0.0,
        1.0
      ]
    ],
    "dcmmeta_shape": [
      188,
      188,
      46,
      216
    ],
    "dcmmeta_slice_dim": 2,
    "dcmmeta_version": 0.6,
    "global": {
      "const": {
        "AcquisitionMatrix": [
          188,
          0,
          0,
          188
        ],
        "AngioFlag": "N",
        "BitsAllocated": 16,
        "BitsStored": 12,
        "Columns": 1316,
        "EchoNumbers": 1,
        "EchoTime": 20.0,
        "EchoTrainLength": 1,
        "FlipAngle": 80.0,
        "HighBit": 11,
        "ImageOrientationPatient": [
          0.9999888518202,
          -0.0034254108465,
          -0.0032500455156,
          -0.0027533585549,
          0.13616856135843,
          -0.9906818570632
        ],
        "ImagePositionPatient": [
          -720.40212933038,
          -140.15368517417,
          700.36842158837
        ],
        "ImageType": [
          "ORIGINAL",
          "PRIMARY",
          "M",
          "MB",
          "ND",
          "MOSAIC"
        ],
        "ImagedNucleus": "1H",
        "ImagingFrequency": 297.205462,
        "InPlanePhaseEncodingDirection": "COL",
        "LargestImagePixelValue": 4095,
        "MRAcquisitionType": "2D",
        "MagneticFieldStrength": 6.98,
        "Manufacturer": "SIEMENS",
        "ManufacturerModelName": "Investigational_Device_7T",
        "Modality": "MR",
        "NumberOfAverages": 1.0,
        "NumberOfPhaseEncodingSteps": 141,
        "PercentPhaseFieldOfView": 100.0,
        "PercentSampling": 100.0,
        "PerformedProcedureStepStartTime": "121908.843000",
        "PhotometricInterpretation": "MONOCHROME2",
        "PixelBandwidth": 1400.0,
        "PixelRepresentation": 0,
        "PixelSpacing": [
          1.0957447290421,
          1.0957447290421
        ],
        "ProtocolName": "cmrr_mbep2d_bold_AP_run7",
        "RepetitionTime": 2600.0,
        "Rows": 1316,
        "SAR": 0.08529539111157,
        "SamplesPerPixel": 1,
        "ScanOptions": [
          "PFP",
          "FS"
        ],
        "ScanningSequence": "EP",
        "SequenceName": "epfid2d1_188",
        "SequenceVariant": [
          "SK",
          "SS"
        ],
        "SeriesDescription": "cmrr_mbep2d_bold_AP_run7",
        "SeriesNumber": 16,
        "SeriesTime": "135429.437000",
        "SliceLocation": -46.250423606159,
        "SliceThickness": 1.1000000238419,
        "SmallestImagePixelValue": 0,
        "SoftwareVersions": "syngo MR B17",
        "SpacingBetweenSlices": 1.099999660146,
        "SpecificCharacterSet": "ISO_IR 100",
        "StudyID": "1",
        "StudyTime": "121908.796000",
        "TransmitCoilName": "32Ch_Head_7T",
        "VariableFlipAngleFlag": "N",
        "WindowCenterWidthExplanation": "Algo1",
        "dBdt": 0.0
      },
      "slices": {}
    },
    "modality": "bold",
    "run_id": 7,
    "session_id": "SES04",
    "subject_id": "S10",
    "task_id": "auditory",
    "time": {
      "samples": {
        "AcquisitionNumber": [
          1,
          2,
          3,
          4,
          5,
          6,
          7,
          8,
          9,
          10,
          11,
          12,
          13,
          14,
          15,
          16,
          17,
          18,
          19,
          20,
          21,
          22,
          23,
          24,
          25,
          26,
          27,
          28,
          29,
          30,
          31,
          32,
          33,
          34,
          35,
          36,
          37,
          38,
          39,
          40,
          41,
          42,
          43,
          44,
          45,
          46,
          47,
          48,
          49,
          50,
          51,
          52,
          53,
          54,
          55,
          56,
          57,
          58,
          59,
          60,
          61,
          62,
          63,
          64,
          65,
          66,
          67,
          68,
          69,
          70,
          71,
          72,
          73,
          74,
          75,
          76,
          77,
          78,
          79,
          80,
          81,
          82,
          83,
          84,
          85,
          86,
          87,
          88,
          89,
          90,
          91,
          92,
          93,
          94,
          95,
          96,
          97,
          98,
          99,
          100,
          101,
          102,
          103,
          104,
          105,
          106,
          107,
          108,
          109,
          110,
          111,
          112,
          113,
          114,
          115,
          116,
          117,
          118,
          119,
          120,
          121,
          122,
          123,
          124,
          125,
          126,
          127,
          128,
          129,
          130,
          131,
          132,
          133,
          134,
          135,
          136,
          137,
          138,
          139,
          140,
          141,
          142,
          143,
          144,
          145,
          146,
          147,
          148,
          149,
          150,
          151,
          152,
          153,
          154,
          155,
          156,
          157,
          158,
          159,
          160,
          161,
          162,
          163,
          164,
          165,
          166,
          167,
          168,
          169,
          170,
          171,
          172,
          173,
          174,
          175,
          176,
          177,
          178,
          179,
          180,
          181,
          182,
          183,
          184,
          185,
          186,
          187,
          188,
          189,
          190,
          191,
          192,
          193,
          194,
          195,
          196,
          197,
          198,
          199,
          200,
          201,
          202,
          203,
          204,
          205,
          206,
          207,
          208,
          209,
          210,
          211,
          212,
          213,
          214,
          215,
          216
        ],
        "AcquisitionTime": [
          "135325.170000",
          "135327.780000",
          "135330.390000",
          "135333.000000",
          "135335.610000",
          "135338.222500",
          "135340.832500",
          "135343.442500",
          "135346.052500",
          "135348.662500",
          "135351.275000",
          "135353.885000",
          "135356.495000",
          "135359.105000",
          "135401.715000",
          "135404.325000",
          "135406.937500",
          "135409.547500",
          "135412.157500",
          "135414.767500",
          "135417.377500",
          "135419.987500",
          "135422.600000",
          "135425.210000",
          "135427.820000",
          "135430.430000",
          "135433.040000",
          "135435.652500",
          "135438.262500",
          "135440.872500",
          "135443.482500",
          "135446.092500",
          "135448.702500",
          "135451.315000",
          "135453.925000",
          "135456.535000",
          "135459.145000",
          "135501.755000",
          "135504.367500",
          "135506.977500",
          "135509.587500",
          "135512.197500",
          "135514.807500",
          "135517.417500",
          "135520.030000",
          "135522.640000",
          "135525.250000",
          "135527.860000",
          "135530.470000",
          "135533.080000",
          "135535.692500",
          "135538.302500",
          "135540.912500",
          "135543.522500",
          "135546.132500",
          "135548.745000",
          "135551.355000",
          "135553.965000",
          "135556.575000",
          "135559.185000",
          "135601.795000",
          "135604.407500",
          "135607.017500",
          "135609.627500",
          "135612.237500",
          "135614.847500",
          "135617.457500",
          "135620.070000",
          "135622.680000",
          "135625.290000",
          "135627.900000",
          "135630.510000",
          "135633.122500",
          "135635.732500",
          "135638.342500",
          "135640.952500",
          "135643.562500",
          "135646.172500",
          "135648.785000",
          "135651.395000",
          "135654.005000",
          "135656.615000",
          "135659.225000",
          "135701.835000",
          "135704.447500",
          "135707.057500",
          "135709.667500",
          "135712.277500",
          "135714.887500",
          "135717.500000",
          "135720.110000",
          "135722.720000",
          "135725.330000",
          "135727.940000",
          "135730.550000",
          "135733.162500",
          "135735.772500",
          "135738.382500",
          "135740.992500",
          "135743.602500",
          "135746.212500",
          "135748.825000",
          "135751.435000",
          "135754.045000",
          "135756.655000",
          "135759.265000",
          "135801.877500",
          "135804.487500",
          "135807.097500",
          "135809.707500",
          "135812.317500",
          "135814.927500",
          "135817.540000",
          "135820.150000",
          "135822.760000",
          "135825.370000",
          "135827.980000",
          "135830.590000",
          "135833.202500",
          "135835.812500",
          "135838.422500",
          "135841.032500",
          "135843.642500",
          "135846.255000",
          "135848.865000",
          "135851.475000",
          "135854.085000",
          "135856.695000",
          "135859.305000",
          "135901.917500",
          "135904.527500",
          "135907.137500",
          "135909.747500",
          "135912.357500",
          "135914.967500",
          "135917.580000",
          "135920.190000",
          "135922.800000",
          "135925.410000",
          "135928.020000",
          "135930.632500",
          "135933.242500",
          "135935.852500",
          "135938.462500",
          "135941.072500",
          "135943.682500",
          "135946.295000",
          "135948.905000",
          "135951.515000",
          "135954.125000",
          "135956.735000",
          "135959.345000",
          "140001.957500",
          "140004.567500",
          "140007.177500",
          "140009.787500",
          "140012.397500",
          "140015.010000",
          "140017.620000",
          "140020.230000",
          "140022.840000",
          "140025.450000",
          "140028.060000",
          "140030.672500",
          "140033.282500",
          "140035.892500",
          "140038.502500",
          "140041.112500",
          "140043.722500",
          "140046.335000",
          "140048.945000",
          "140051.555000",
          "140054.165000",
          "140056.775000",
          "140059.387500",
          "140101.997500",
          "140104.607500",
          "140107.217500",
          "140109.827500",
          "140112.437500",
          "140115.050000",
          "140117.660000",
          "140120.270000",
          "140122.880000",
          "140125.490000",
          "140128.100000",
          "140130.712500",
          "140133.322500",
          "140135.932500",
          "140138.542500",
          "140141.152500",
          "140143.765000",
          "140146.375000",
          "140148.985000",
          "140151.595000",
          "140154.205000",
          "140156.815000",
          "140159.427500",
          "140202.037500",
          "140204.647500",
          "140207.257500",
          "140209.867500",
          "140212.477500",
          "140215.090000",
          "140217.700000",
          "140220.310000",
          "140222.920000",
          "140225.530000",
          "140228.142500",
          "140230.752500",
          "140233.362500",
          "140235.972500",
          "140238.582500",
          "140241.192500",
          "140243.805000",
          "140246.415000"
        ],
        "ContentTime": [
          "135429.437000",
          "135429.453000",
          "135429.453000",
          "135429.453000",
          "135429.453000",
          "135429.453000",
          "135429.453000",
          "135429.468000",
          "135429.468000",
          "135429.468000",
          "135429.468000",
          "135429.468000",
          "135429.468000",
          "135429.468000",
          "135429.468000",
          "135429.484000",
          "135429.484000",
          "135429.484000",
          "135429.484000",
          "135429.484000",
          "135429.484000",
          "135429.484000",
          "135429.500000",
          "135509.437000",
          "135509.437000",
          "135509.437000",
          "135509.437000",
          "135509.437000",
          "135509.437000",
          "135509.437000",
          "135509.453000",
          "135509.453000",
          "135509.453000",
          "135509.453000",
          "135509.453000",
          "135509.453000",
          "135509.468000",
          "135509.468000",
          "135509.468000",
          "135609.437000",
          "135609.437000",
          "135609.437000",
          "135609.437000",
          "135609.437000",
          "135609.453000",
          "135609.453000",
          "135609.453000",
          "135609.453000",
          "135609.453000",
          "135609.453000",
          "135609.453000",
          "135609.453000",
          "135609.468000",
          "135609.468000",
          "135609.468000",
          "135609.468000",
          "135609.468000",
          "135609.468000",
          "135609.468000",
          "135609.484000",
          "135609.484000",
          "135609.484000",
          "135709.437000",
          "135709.437000",
          "135709.437000",
          "135709.437000",
          "135709.437000",
          "135709.437000",
          "135709.437000",
          "135709.453000",
          "135709.453000",
          "135709.453000",
          "135709.453000",
          "135709.453000",
          "135709.453000",
          "135709.453000",
          "135709.453000",
          "135709.468000",
          "135709.468000",
          "135709.468000",
          "135709.468000",
          "135709.468000",
          "135709.468000",
          "135709.468000",
          "135709.484000",
          "135809.437000",
          "135809.437000",
          "135809.437000",
          "135809.437000",
          "135809.437000",
          "135809.453000",
          "135809.453000",
          "135809.453000",
          "135809.453000",
          "135809.453000",
          "135809.453000",
          "135809.453000",
          "135809.453000",
          "135809.468000",
          "135809.468000",
          "135809.468000",
          "135809.468000",
          "135809.468000",
          "135809.468000",
          "135809.468000",
          "135809.484000",
          "135809.484000",
          "135809.484000",
          "135909.437000",
          "135909.437000",
          "135909.437000",
          "135909.437000",
          "135909.437000",
          "135909.437000",
          "135909.453000",
          "135909.453000",
          "135909.453000",
          "135909.453000",
          "135909.453000",
          "135909.453000",
          "135909.453000",
          "135909.468000",
          "135909.468000",
          "135909.468000",
          "135909.468000",
          "135909.468000",
          "135909.484000",
          "135909.484000",
          "135909.484000",
          "135909.484000",
          "135909.484000",
          "140009.437000",
          "140009.437000",
          "140009.437000",
          "140009.437000",
          "140009.437000",
          "140009.437000",
          "140009.453000",
          "140009.453000",
          "140009.453000",
          "140009.453000",
          "140009.453000",
          "140009.453000",
          "140009.453000",
          "140009.468000",
          "140009.468000",
          "140009.468000",
          "140009.468000",
          "140009.468000",
          "140009.468000",
          "140009.468000",
          "140009.468000",
          "140009.484000",
          "140009.484000",
          "140109.437000",
          "140109.437000",
          "140109.437000",
          "140109.453000",
          "140109.453000",
          "140109.453000",
          "140109.453000",
          "140109.453000",
          "140109.453000",
          "140109.468000",
          "140109.468000",
          "140109.468000",
          "140109.468000",
          "140109.468000",
          "140109.468000",
          "140109.468000",
          "140109.484000",
          "140109.484000",
          "140109.484000",
          "140109.484000",
          "140109.484000",
          "140109.484000",
          "140109.484000",
          "140209.421000",
          "140209.437000",
          "140209.437000",
          "140209.437000",
          "140209.453000",
          "140209.453000",
          "140209.453000",
          "140209.453000",
          "140209.453000",
          "140209.453000",
          "140209.453000",
          "140209.453000",
          "140209.468000",
          "140209.468000",
          "140209.468000",
          "140209.468000",
          "140209.468000",
          "140209.468000",
          "140209.468000",
          "140209.484000",
          "140209.484000",
          "140209.484000",
          "140209.484000",
          "140254.281000",
          "140254.296000",
          "140254.296000",
          "140254.296000",
          "140254.296000",
          "140254.296000",
          "140254.296000",
          "140254.312000",
          "140254.312000",
          "140254.312000",
          "140254.312000",
          "140254.312000",
          "140254.312000",
          "140254.312000",
          "140254.328000",
          "140254.328000"
        ],
        "InstanceCreationTime": [
          "135429.437000",
          "135429.453000",
          "135429.453000",
          "135429.453000",
          "135429.453000",
          "135429.453000",
          "135429.453000",
          "135429.468000",
          "135429.468000",
          "135429.468000",
          "135429.468000",
          "135429.468000",
          "135429.468000",
          "135429.468000",
          "135429.468000",
          "135429.484000",
          "135429.484000",
          "135429.484000",
          "135429.484000",
          "135429.484000",
          "135429.484000",
          "135429.484000",
          "135429.500000",
          "135509.437000",
          "135509.437000",
          "135509.437000",
          "135509.437000",
          "135509.437000",
          "135509.437000",
          "135509.437000",
          "135509.453000",
          "135509.453000",
          "135509.453000",
          "135509.453000",
          "135509.453000",
          "135509.453000",
          "135509.468000",
          "135509.468000",
          "135509.468000",
          "135609.437000",
          "135609.437000",
          "135609.437000",
          "135609.437000",
          "135609.437000",
          "135609.453000",
          "135609.453000",
          "135609.453000",
          "135609.453000",
          "135609.453000",
          "135609.453000",
          "135609.453000",
          "135609.453000",
          "135609.468000",
          "135609.468000",
          "135609.468000",
          "135609.468000",
          "135609.468000",
          "135609.468000",
          "135609.468000",
          "135609.484000",
          "135609.484000",
          "135609.484000",
          "135709.437000",
          "135709.437000",
          "135709.437000",
          "135709.437000",
          "135709.437000",
          "135709.437000",
          "135709.437000",
          "135709.453000",
          "135709.453000",
          "135709.453000",
          "135709.453000",
          "135709.453000",
          "135709.453000",
          "135709.453000",
          "135709.453000",
          "135709.468000",
          "135709.468000",
          "135709.468000",
          "135709.468000",
          "135709.468000",
          "135709.468000",
          "135709.468000",
          "135709.484000",
          "135809.437000",
          "135809.437000",
          "135809.437000",
          "135809.437000",
          "135809.437000",
          "135809.453000",
          "135809.453000",
          "135809.453000",
          "135809.453000",
          "135809.453000",
          "135809.453000",
          "135809.453000",
          "135809.453000",
          "135809.468000",
          "135809.468000",
          "135809.468000",
          "135809.468000",
          "135809.468000",
          "135809.468000",
          "135809.468000",
          "135809.484000",
          "135809.484000",
          "135809.484000",
          "135909.437000",
          "135909.437000",
          "135909.437000",
          "135909.437000",
          "135909.437000",
          "135909.437000",
          "135909.453000",
          "135909.453000",
          "135909.453000",
          "135909.453000",
          "135909.453000",
          "135909.453000",
          "135909.453000",
          "135909.468000",
          "135909.468000",
          "135909.468000",
          "135909.468000",
          "135909.468000",
          "135909.484000",
          "135909.484000",
          "135909.484000",
          "135909.484000",
          "135909.484000",
          "140009.437000",
          "140009.437000",
          "140009.437000",
          "140009.437000",
          "140009.437000",
          "140009.437000",
          "140009.453000",
          "140009.453000",
          "140009.453000",
          "140009.453000",
          "140009.453000",
          "140009.453000",
          "140009.453000",
          "140009.468000",
          "140009.468000",
          "140009.468000",
          "140009.468000",
          "140009.468000",
          "140009.468000",
          "140009.468000",
          "140009.468000",
          "140009.484000",
          "140009.484000",
          "140109.437000",
          "140109.437000",
          "140109.437000",
          "140109.453000",
          "140109.453000",
          "140109.453000",
          "140109.453000",
          "140109.453000",
          "140109.453000",
          "140109.468000",
          "140109.468000",
          "140109.468000",
          "140109.468000",
          "140109.468000",
          "140109.468000",
          "140109.468000",
          "140109.484000",
          "140109.484000",
          "140109.484000",
          "140109.484000",
          "140109.484000",
          "140109.484000",
          "140109.484000",
          "140209.421000",
          "140209.437000",
          "140209.437000",
          "140209.437000",
          "140209.453000",
          "140209.453000",
          "140209.453000",
          "140209.453000",
          "140209.453000",
          "140209.453000",
          "140209.453000",
          "140209.453000",
          "140209.468000",
          "140209.468000",
          "140209.468000",
          "140209.468000",
          "140209.468000",
          "140209.468000",
          "140209.468000",
          "140209.484000",
          "140209.484000",
          "140209.484000",
          "140209.484000",
          "140254.281000",
          "140254.296000",
          "140254.296000",
          "140254.296000",
          "140254.296000",
          "140254.296000",
          "140254.296000",
          "140254.312000",
          "140254.312000",
          "140254.312000",
          "140254.312000",
          "140254.312000",
          "140254.312000",
          "140254.312000",
          "140254.328000",
          "140254.328000"
        ],
        "InstanceNumber": [
          1,
          2,
          3,
          4,
          5,
          6,
          7,
          8,
          9,
          10,
          11,
          12,
          13,
          14,
          15,
          16,
          17,
          18,
          19,
          20,
          21,
          22,
          23,
          24,
          25,
          26,
          27,
          28,
          29,
          30,
          31,
          32,
          33,
          34,
          35,
          36,
          37,
          38,
          39,
          40,
          41,
          42,
          43,
          44,
          45,
          46,
          47,
          48,
          49,
          50,
          51,
          52,
          53,
          54,
          55,
          56,
          57,
          58,
          59,
          60,
          61,
          62,
          63,
          64,
          65,
          66,
          67,
          68,
          69,
          70,
          71,
          72,
          73,
          74,
          75,
          76,
          77,
          78,
          79,
          80,
          81,
          82,
          83,
          84,
          85,
          86,
          87,
          88,
          89,
          90,
          91,
          92,
          93,
          94,
          95,
          96,
          97,
          98,
          99,
          100,
          101,
          102,
          103,
          104,
          105,
          106,
          107,
          108,
          109,
          110,
          111,
          112,
          113,
          114,
          115,
          116,
          117,
          118,
          119,
          120,
          121,
          122,
          123,
          124,
          125,
          126,
          127,
          128,
          129,
          130,
          131,
          132,
          133,
          134,
          135,
          136,
          137,
          138,
          139,
          140,
          141,
          142,
          143,
          144,
          145,
          146,
          147,
          148,
          149,
          150,
          151,
          152,
          153,
          154,
          155,
          156,
          157,
          158,
          159,
          160,
          161,
          162,
          163,
          164,
          165,
          166,
          167,
          168,
          169,
          170,
