{
  "aor": 0.0006219463087248322,
  "aqi": 0.012283063087248322,
  "bids_meta": {
    "AcquisitionMatrixPE": 188,
    "AcquisitionNumber": 1,
    "AcquisitionTime": "16:35:37.300000",
    "BandwidthPerPixelPhaseEncode": 19.46,
    "BaseResolution": 188,
    "CogAtlasID": "TODO",
    "ConversionSoftware": "dcm2niix",
    "ConversionSoftwareVersion": "v1.0.20180606 GCC4.8.5",
    "DelayTime": 1.2,
    "DerivedVendorReportedEchoSpacing": 0.000820013,
    "DeviceSerialNumber": "18930",
    "DwellTime": 1.9e-06,
    "EchoTime": 0.02,
    "EffectiveEchoSpacing": 0.000273338,
    "FlipAngle": 80,
    "ImageComments": "Unaliased_MB2_PE2",
    "ImageOrientationPatientDICOM": [
      0.999173,
      0.0356399,
      -0.0195491,
      -0.0249324,
      0.157486,
      -0.987206
    ],
    "ImageType": [
      "ORIGINAL",
      "PRIMARY",
      "M",
      "MB",
      "ND",
      "MOSAIC"
    ],
    "InPlanePhaseEncodingDirectionDICOM": "COL",
    "InstitutionAddress": "Oxfordlaan_55_Maastricht_753AAF_Limburg_NL_6229_EV",
    "InstitutionName": "Scannexus",
    "InstitutionalDepartmentName": "MRI_7T",
    "MRAcquisitionType": "2D",
    "MagneticFieldStrength": 6.98,
    "Manufacturer": "Siemens",
    "ManufacturersModelName": "Investigational_Device_7T",
    "Modality": "MR",
    "MultibandAccelerationFactor": 2,
    "ParallelReductionFactorInPlane": 3,
    "PartialFourier": 0.75,
    "PatientPosition": "HFS",
    "PercentPhaseFOV": 100,
    "PhaseEncodingDirection": "j",
    "PhaseEncodingSteps": 141,
    "PhaseResolution": 1,
    "PixelBandwidth": 1400,
    "ProcedureStepDescription": "FeDem_Faruk",
    "ProtocolName": "cmrr_mbep2d_bold_AP_run9",
    "PulseSequenceDetails": "%CustomerSeq%_cmrr_mbep2d_bold",
    "ReceiveCoilName": "32Ch_Head_7T",
    "ReconMatrixPE": 188,
    "RepetitionTime": 2.6,
    "SAR": 0.0633395,
    "ScanOptions": "PFP_FS",
    "ScanningSequence": "EP",
    "SequenceName": "epfid2d1_188",
    "SequenceVariant": "SK_SS",
    "SeriesDescription": "cmrr_mbep2d_bold_AP_run9",
    "SeriesNumber": 23,
    "ShimSetting": [
      54,
      -36,
      345,
      608,
      -240,
      461,
      258,
      248
    ],
    "SliceThickness": 1.1,
    "SliceTiming": [
      0,
      0.7325,
      0.06,
      0.795,
      0.1225,
      0.855,
      0.1825,
      0.915,
      0.245,
      0.9775,
      0.305,
      1.0375,
      0.365,
      1.1,
      0.4275,
      1.16,
      0.4875,
      1.2225,
      0.55,
      1.2825,
      0.61,
      1.345,
      0.6725,
      0,
      0.7325,
      0.06,
      0.795,
      0.1225,
      0.855,
      0.1825,
      0.915,
      0.245,
      0.9775,
      0.305,
      1.0375,
      0.365,
      1.1,
      0.4275,
      1.16,
      0.4875,
      1.2225,
      0.55,
      1.2825,
      0.61,
      1.345,
      0.6725
    ],
    "SoftwareVersions": "syngo_MR_B17",
    "SpacingBetweenSlices": 1.1,
    "StationName": "MRC18930",
    "TaskName": "auditory",
    "TotalReadoutTime": 0.0511141,
    "TxRefAmp": 195,
    "dataset": "ds001942",
    "dcmmeta_affine": [
      [
        -1.094839096069336,
        -0.027319511398673058,
        0.03531578183174133,
        101.3092041015625
      ],
      [
        -0.03905225917696953,
        0.17256446182727814,
        -1.0855656862258911,
        30.128551483154297
      ],
      [
        -0.02142079547047615,
        1.0817261934280396,
        0.1740688681602478,
        -117.70782470703125
      ],
      [
        0.0,
        0.0,
        0.0,
        1.0
      ]
    ],
    "dcmmeta_reorient_transform": [
      [
        0.0,
        -1.0,
        0.0,
        187.0
      ],
      [
        1.0,
        0.0,
        0.0,
        0.0
      ],
      [
        0.0,
        0.0,
        1.0,
        0.0
      ],
      [
        0.0,
        0.0,
        0.0,
        1.0
      ]
    ],
    "dcmmeta_shape": [
      188,
      188,
      46,
      150
    ],
    "dcmmeta_slice_dim": 2,
    "dcmmeta_version": 0.6,
    "global": {
      "const": {
        "AcquisitionMatrix": [
          188,
          0,
          0,
          188
        ],
        "AngioFlag": "N",
        "BitsAllocated": 16,
        "BitsStored": 12,
        "Columns": 1316,
        "EchoNumbers": 1,
        "EchoTime": 20.0,
        "EchoTrainLength": 1,
        "FlipAngle": 80.0,
        "HighBit": 11,
        "ImageOrientationPatient": [
          0.9991734731755,
          0.03563992392724,
          -0.0195490747831,
          -0.0249323689402,
          0.15748600827289,
          -0.9872064293638
        ],
        "ImagePositionPatient": [
          -698.28148280732,
          -181.74993727346,
          706.74991415591
        ],
        "ImageType": [
          "ORIGINAL",
          "PRIMARY",
          "M",
          "MB",
          "ND",
          "MOSAIC"
        ],
        "ImagedNucleus": "1H",
        "ImagingFrequency": 297.205679,
        "InPlanePhaseEncodingDirection": "COL",
        "LargestImagePixelValue": 4095,
        "MRAcquisitionType": "2D",
        "MagneticFieldStrength": 6.98,
        "Manufacturer": "SIEMENS",
        "ManufacturerModelName": "Investigational_Device_7T",
        "Modality": "MR",
        "NumberOfAverages": 1.0,
        "NumberOfPhaseEncodingSteps": 141,
        "PercentPhaseFieldOfView": 100.0,
        "PercentSampling": 100.0,
        "PerformedProcedureStepStartTime": "150445.390000",
        "PhotometricInterpretation": "MONOCHROME2",
        "PixelBandwidth": 1400.0,
        "PixelRepresentation": 0,
        "PixelSpacing": [
          1.0957447290421,
          1.0957447290421
        ],
        "ProtocolName": "cmrr_mbep2d_bold_AP_run9",
        "RepetitionTime": 2600.0,
        "Rows": 1316,
        "SAR": 0.06333948645058,
        "SamplesPerPixel": 1,
        "ScanOptions": [
          "PFP",
          "FS"
        ],
        "ScanningSequence": "EP",
        "SequenceName": "epfid2d1_188",
        "SequenceVariant": [
          "SK",
          "SS"
        ],
        "SeriesDescription": "cmrr_mbep2d_bold_AP_run9",
        "SeriesNumber": 23,
        "SeriesTime": "163546.593000",
        "SliceLocation": -45.107250061711,
        "SliceThickness": 1.1000000238419,
        "SmallestImagePixelValue": 0,
        "SoftwareVersions": "syngo MR B17",
        "SpacingBetweenSlices": 1.1000000170425,
        "SpecificCharacterSet": "ISO_IR 100",
        "StudyID": "1",
        "StudyTime": "150445.343000",
        "TransmitCoilName": "32Ch_Head_7T",
        "VariableFlipAngleFlag": "N",
        "WindowCenterWidthExplanation": "Algo1",
        "dBdt": 0.0
      },
      "slices": {}
    },
    "modality": "bold",
    "run_id": 9,
    "session_id": "SES02",
    "subject_id": "S09",
    "task_id": "auditory",
    "time": {
      "samples": {
        "AcquisitionNumber": [
          1,
          2,
          3,
          4,
          5,
          6,
          7,
          8,
          9,
          10,
          11,
          12,
          13,
          14,
          15,
          16,
          17,
          18,
          19,
          20,
          21,
          22,
          23,
          24,
          25,
          26,
          27,
          28,
          29,
          30,
          31,
          32,
          33,
          34,
          35,
          36,
          37,
          38,
          39,
          40,
          41,
          42,
          43,
          44,
          45,
          46,
          47,
          48,
          49,
          50,
          51,
          52,
          53,
          54,
          55,
          56,
          57,
          58,
          59,
          60,
          61,
          62,
          63,
          64,
          65,
          66,
          67,
          68,
          69,
          70,
          71,
          72,
          73,
          74,
          75,
          76,
          77,
          78,
          79,
          80,
          81,
          82,
          83,
          84,
          85,
          86,
          87,
          88,
          89,
          90,
          91,
          92,
          93,
          94,
          95,
          96,
          97,
          98,
          99,
          100,
          101,
          102,
          103,
          104,
          105,
          106,
          107,
          108,
          109,
          110,
          111,
          112,
          113,
          114,
          115,
          116,
          117,
          118,
          119,
          120,
          121,
          122,
          123,
          124,
          125,
          126,
          127,
          128,
          129,
          130,
          131,
          132,
          133,
          134,
          135,
          136,
          137,
          138,
          139,
          140,
          141,
          142,
          143,
          144,
          145,
          146,
          147,
          148,
          149,
          150
        ],
        "AcquisitionTime": [
          "163537.300000",
          "163539.910000",
          "163542.520000",
          "163545.130000",
          "163547.742500",
          "163550.352500",
          "163552.962500",
          "163555.572500",
          "163558.182500",
          "163600.792500",
          "163603.405000",
          "163606.015000",
          "163608.625000",
          "163611.235000",
          "163613.845000",
          "163616.455000",
          "163619.067500",
          "163621.677500",
          "163624.287500",
          "163626.897500",
          "163629.507500",
          "163632.120000",
          "163634.730000",
          "163637.340000",
          "163639.950000",
          "163642.560000",
          "163645.170000",
          "163647.782500",
          "163650.392500",
          "163653.002500",
          "163655.612500",
          "163658.222500",
          "163700.832500",
          "163703.445000",
          "163706.055000",
          "163708.665000",
          "163711.275000",
          "163713.885000",
          "163716.497500",
          "163719.107500",
          "163721.717500",
          "163724.327500",
          "163726.937500",
          "163729.547500",
          "163732.160000",
          "163734.770000",
          "163737.380000",
          "163739.990000",
          "163742.600000",
          "163745.210000",
          "163747.822500",
          "163750.432500",
          "163753.042500",
          "163755.652500",
          "163758.262500",
          "163800.875000",
          "163803.485000",
          "163806.095000",
          "163808.705000",
          "163811.315000",
          "163813.925000",
          "163816.537500",
          "163819.147500",
          "163821.757500",
          "163824.367500",
          "163826.977500",
          "163829.587500",
          "163832.200000",
          "163834.810000",
          "163837.420000",
          "163840.030000",
          "163842.640000",
          "163845.252500",
          "163847.862500",
          "163850.472500",
          "163853.082500",
          "163855.692500",
          "163858.302500",
          "163900.915000",
          "163903.525000",
          "163906.135000",
          "163908.745000",
          "163911.355000",
          "163913.965000",
          "163916.577500",
          "163919.187500",
          "163921.797500",
          "163924.407500",
          "163927.017500",
          "163929.630000",
          "163932.240000",
          "163934.850000",
          "163937.460000",
          "163940.070000",
          "163942.680000",
          "163945.292500",
          "163947.902500",
          "163950.512500",
          "163953.122500",
          "163955.732500",
          "163958.342500",
          "164000.955000",
          "164003.565000",
          "164006.175000",
          "164008.785000",
          "164011.395000",
          "164014.007500",
          "164016.617500",
          "164019.227500",
          "164021.837500",
          "164024.447500",
          "164027.057500",
          "164029.670000",
          "164032.280000",
          "164034.890000",
          "164037.500000",
          "164040.110000",
          "164042.720000",
          "164045.332500",
          "164047.942500",
          "164050.552500",
          "164053.162500",
          "164055.772500",
          "164058.385000",
          "164100.995000",
          "164103.605000",
          "164106.215000",
          "164108.825000",
          "164111.435000",
          "164114.047500",
          "164116.657500",
          "164119.267500",
          "164121.877500",
          "164124.487500",
          "164127.097500",
          "164129.710000",
          "164132.320000",
          "164134.930000",
          "164137.540000",
          "164140.150000",
          "164142.762500",
          "164145.372500",
          "164147.982500",
          "164150.592500",
          "164153.202500",
          "164155.812500",
          "164158.425000",
          "164201.035000",
          "164203.645000",
          "164206.255000"
        ],
        "ContentTime": [
          "163546.593000",
          "163547.093000",
          "163547.593000",
          "163549.593000",
          "163552.093000",
          "163555.093000",
          "163557.593000",
          "163600.093000",
          "163602.593000",
          "163605.093000",
          "163608.078000",
          "163610.593000",
          "163613.093000",
          "163615.593000",
          "163618.093000",
          "163621.093000",
          "163623.593000",
          "163626.093000",
          "163628.593000",
          "163631.093000",
          "163634.093000",
          "163636.593000",
          "163639.093000",
          "163641.593000",
          "163644.093000",
          "163647.093000",
          "163649.593000",
          "163652.093000",
          "163654.593000",
          "163657.093000",
          "163700.093000",
          "163702.578000",
          "163705.078000",
          "163707.593000",
          "163710.093000",
          "163713.093000",
          "163715.593000",
          "163718.093000",
          "163720.593000",
          "163723.093000",
          "163726.093000",
          "163728.593000",
          "163731.093000",
          "163733.593000",
          "163736.093000",
          "163738.593000",
          "163741.593000",
          "163744.093000",
          "163746.593000",
          "163749.093000",
          "163752.093000",
          "163754.593000",
          "163757.093000",
          "163759.593000",
          "163802.078000",
          "163805.093000",
          "163807.593000",
          "163810.093000",
          "163812.593000",
          "163815.093000",
          "163818.093000",
          "163820.593000",
          "163823.093000",
          "163825.593000",
          "163828.093000",
          "163831.093000",
          "163833.593000",
          "163836.093000",
          "163838.593000",
          "163841.093000",
          "163844.093000",
          "163846.593000",
          "163849.093000",
          "163851.593000",
          "163854.093000",
          "163857.078000",
          "163859.578000",
          "163902.093000",
          "163904.593000",
          "163907.093000",
          "163910.093000",
          "163912.578000",
          "163915.093000",
          "163917.593000",
          "163920.093000",
          "163923.093000",
          "163925.593000",
          "163928.093000",
          "163930.593000",
          "163933.093000",
          "163936.093000",
          "163938.593000",
          "163941.093000",
          "163943.593000",
          "163946.093000",
          "163949.093000",
          "163951.593000",
          "163954.078000",
          "163956.593000",
          "163959.093000",
          "164002.093000",
          "164004.593000",
          "164007.093000",
          "164009.593000",
          "164012.093000",
          "164015.093000",
          "164017.593000",
          "164020.093000",
          "164022.593000",
          "164025.093000",
          "164028.093000",
          "164030.593000",
          "164033.093000",
          "164035.593000",
          "164038.093000",
          "164041.093000",
          "164043.593000",
          "164046.093000",
          "164048.578000",
          "164051.078000",
          "164054.093000",
          "164056.593000",
          "164059.093000",
          "164101.593000",
          "164104.093000",
          "164107.093000",
          "164109.593000",
          "164112.093000",
          "164114.593000",
          "164117.093000",
          "164120.093000",
          "164122.593000",
          "164125.093000",
          "164127.593000",
          "164130.093000",
          "164133.093000",
          "164135.593000",
          "164138.093000",
          "164140.593000",
          "164143.078000",
          "164146.078000",
          "164148.593000",
          "164151.093000",
          "164153.593000",
          "164156.093000",
          "164159.093000",
          "164201.593000",
          "164204.093000",
          "164206.593000",
          "164213.968000"
        ],
        "InstanceCreationTime": [
          "163546.593000",
          "163547.093000",
          "163547.593000",
          "163549.593000",
          "163552.093000",
          "163555.093000",
          "163557.593000",
          "163600.093000",
          "163602.593000",
          "163605.093000",
          "163608.078000",
          "163610.593000",
          "163613.093000",
          "163615.593000",
          "163618.093000",
          "163621.093000",
          "163623.593000",
          "163626.093000",
          "163628.593000",
          "163631.093000",
          "163634.093000",
          "163636.593000",
          "163639.093000",
          "163641.593000",
          "163644.093000",
          "163647.093000",
          "163649.593000",
          "163652.093000",
          "163654.593000",
          "163657.093000",
          "163700.093000",
          "163702.578000",
          "163705.078000",
          "163707.593000",
          "163710.093000",
          "163713.093000",
          "163715.593000",
          "163718.093000",
          "163720.593000",
          "163723.093000",
          "163726.093000",
          "163728.593000",
          "163731.093000",
          "163733.593000",
          "163736.093000",
          "163738.593000",
          "163741.593000",
          "163744.093000",
          "163746.593000",
          "163749.093000",
          "163752.093000",
          "163754.593000",
          "163757.093000",
          "163759.593000",
          "163802.078000",
          "163805.093000",
          "163807.593000",
          "163810.093000",
          "163812.593000",
          "163815.093000",
          "163818.093000",
          "163820.593000",
          "163823.093000",
          "163825.593000",
          "163828.093000",
          "163831.093000",
          "163833.593000",
          "163836.093000",
          "163838.593000",
          "163841.093000",
          "163844.093000",
          "163846.593000",
          "163849.093000",
          "163851.593000",
          "163854.093000",
          "163857.078000",
          "163859.578000",
          "163902.093000",
          "163904.593000",
          "163907.093000",
          "163910.093000",
          "163912.578000",
          "163915.093000",
          "163917.593000",
          "163920.093000",
          "163923.093000",
          "163925.593000",
          "163928.093000",
          "163930.593000",
          "163933.093000",
          "163936.093000",
          "163938.593000",
          "163941.093000",
          "163943.593000",
          "163946.093000",
          "163949.093000",
          "163951.593000",
          "163954.078000",
          "163956.593000",
          "163959.093000",
          "164002.093000",
          "164004.593000",
          "164007.093000",
          "164009.593000",
          "164012.093000",
          "164015.093000",
          "164017.593000",
          "164020.093000",
          "164022.593000",
          "164025.093000",
          "164028.093000",
          "164030.593000",
          "164033.093000",
          "164035.593000",
          "164038.093000",
          "164041.093000",
          "164043.593000",
          "164046.093000",
          "164048.578000",
          "164051.078000",
          "164054.093000",
          "164056.593000",
          "164059.093000",
          "164101.593000",
          "164104.093000",
          "164107.093000",
          "164109.593000",
          "164112.093000",
          "164114.593000",
          "164117.093000",
          "164120.093000",
          "164122.593000",
          "164125.093000",
          "164127.593000",
          "164130.093000",
          "164133.093000",
          "164135.593000",
          "164138.093000",
          "164140.593000",
          "164143.078000",
          "164146.078000",
          "164148.593000",
          "164151.093000",
          "164153.593000",
          "164156.093000",
          "164159.093000",
          "164201.593000",
          "164204.093000",
          "164206.593000",
          "164213.968000"
        ],
        "InstanceNumber": [
          1,
          2,
          3,
          4,
          5,
          6,
          7,
          8,
          9,
          10,
          11,
          12,
          13,
          14,
          15,
          16,
          17,
          18,
          19,
          20,
          21,
          22,
          23,
          24,
          25,
          26,
          27,
          28,
          29,
          30,
          31,
          32,
          33,
          34,
          35,
          36,
          37,
          38,
          39,
          40,
          41,
          42,
          43,
          44,
          45,
          46,
          47,
          48,
          49,
          50,
          51,
          52,
          53,
          54,
          55,
          56,
          57,
          58,
          59,
          60,
          61,
          62,
          63,
          64,
          65,
          66,
          67,
          68,
          69,
          70,
          71,
          72,
          73,
          74,
          75,
          76,
          77,
          78,
          79,
          80,
          81,
          82,
          83,
          84,
          85,
          86,
          87,
          88,
          89,
          90,
          91,
          92,
          93,
          94,
          95,
          96,
          97,
          98,
          99,
          100,
          101,
          102,
          103,
          104,
          105,
          106,
          107,
          108,
          109,
          110,
          111,
          112,
          113,
          114,
          115,
          116,
          117,
          118,
          119,
          120,
          121,
          122,
          123,
          124,
          125,
          126,
          127,
          128,
          129,
          130,
          131,
          132,
          133,
          134,
          135,
          136,
          137,
          138,
          139,
          140,
          141,
          142,
          143,
          144,
          145,
          146,
          147,
          148,
          149,
          150
        ],
        "WindowCenter": [
          865.0,
          863.0,
          863.0,
          862.0,
          861.0,
          861.0,
          862.0,
          862.0,
          862.0,
          861.0,
          861.0,
          862.0,
          862.0,
          862.0,
          862.0,
          862.0,
          862.0,
          861.0,
          861.0,
          862.0,
          862.0,
          863.0,
          863.0,
          862.0,
          863.0,
          862.0,
          862.0,
          862.0,
          862.0,
          862.0,
          862.0,
          862.0,
          863.0,
          862.0,
          862.0,
          861.0,
          861.0,
          861.0,
          861.0,
          861.0,
          862.0,
          863.0,
          864.0,
          864.0,
          863.0,
          862.0,
          862.0,
          861.0,
          861.0,
          861.0,
          862.0,
          863.0,
          862.0,
          861.0,
          862.0,
          862.0,
          862.0,
          861.0,
          862.0,
          862.0,
          862.0,
          862.0,
          861.0,
          860.0,
          861.0,
          862.0,
          862.0,
          862.0,
          862.0,
          863.0,
          864.0,
          863.0,
          862.0,
          862.0,
          862.0,
          861.0,
          861.0,
          862.0,
          863.0,
          863.0,
          862.0,
          862.0,
          863.0,
          863.0,
          863.0,
          863.0,
          864.0,
          864.0,
          863.0,
          862.0,
          862.0,
          863.0,
          863.0,
          861.0,
          861.0,
          862.0,
          862.0,
          863.0,
          863.0,
          863.0,
          863.0,
          863.0,
          862.0,
          862.0,
          863.0,
          862.0,
          861.0,
          862.0,
          862.0,
          862.0,
          861.0,
          863.0,
          863.0,
          862.0,
          862.0,
          862.0,
          863.0,
          863.0,
          863.0,
          862.0,
          863.0,
          864.0,
          863.0,
          863.0,
          863.0,
          863.0,
          863.0,
          862.0,
          862.0,
          863.0,
          864.0,
          862.0,
          861.0,
          863.0,
          864.0,
          863.0,
          862.0,
          863.0,
          863.0,
          862.0,
          862.0,
          863.0,
          863.0,
          863.0,
          863.0,
          863.0,
          862.0,
          863.0,
          865.0,
          863.0
        ],
        "WindowWidth": [
          1986.0,
          1979.0,
          1978.0,
          1975.0,
          1971.0,
          1973.0,
          1976.0,
          1975.0,
          1974.0,
          1971.0,
          1973.0,
          1975.0,
          1977.0,
          1977.0,
          1976.0,
          1975.0,
          1975.0,
          1973.0,
          1974.0,
          1977.0,
          1976.0,
          1978.0,
          1980.0,
          1977.0,
          1978.0,
          1977.0,
          1976.0,
          1975.0,
          1975.0,
          1976.0,
          1977.0,
          1977.0,
          1978.0,
          1976.0,
          1976.0,
          1972.0,
          1971.0,
          1972.0,
          1973.0,
          1973.0,
          1976.0,
          1980.0,
          1982.0,
          1982.0,
          1978.0,
          1975.0,
          1977.0,
          1973.0,
          1971.0,
          1972.0,
          1976.0,
          1978.0,
          1975.0,
          1973.0,
          1977.0,
          1977.0,
          1975.0,
          1974.0,
          1975.0,
          1975.0,
          1977.0,
          1977.0,
          1973.0,
          1970.0,
          1971.0,
          1977.0,
          1977.0,
          1976.0,
          1978.0,
          1979.0,
          1983.0,
          1979.0,
          1976.0,
          1978.0,
          1977.0,
          1974.0,
          1974.0,
          1977.0,
          1980.0,
          1979.0,
          1976.0,
          1978.0,
          1978.0,
          1978.0,
          1978.0,
          1980.0,
          1982.0,
          1982.0,
          1978.0,
          1976.0,
          1976.0,
          1979.0,
          1978.0,
          1974.0,
          1974.0,
          1974.0,
          1977.0,
          1978.0,
          1979.0,
          1978.0,
          1979.0,
          1979.0,
          1975.0,
          1977.0,
          1978.0,
          1975.0,
          1974.0,
          1977.0,
          1977.0,
          1976.0,
          1974.0,
          1979.0,
          1980.0,
          1977.0,
          1977.0,
          1976.0,
          1978.0,
          1979.0,
          1979.0,
          1978.0,
          1979.0,
          1981.0,
          1979.0,
          1978.0,
          1979.0,
          1980.0,
          1979.0,
          1977.0,
          1974.0,
          1980.0,
          1983.0,
          1976.0,
          1975.0,
          1980.0,
          1984.0,
          1979.0,
          1976.0,
          1978.0,
          1979.0,
          1975.0,
          1976.0,
          1980.0,
          1979.0,
          1979.0,
          1980.0,
          1978.0,
          1976.0,
          1981.0,
          1987.0,
          1980.0
        ]
      },
      "slices": {}
    }
  },
  "dummy_trs": 1,
  "dvars_nstd": 69.53520810918921,
  "dvars_std": 1.0329392471621617,
  "dvars_vstd": 1.011353207837838,
  "efc": 0.5545410574970915,
  "fber": 375.5915832519531,
  "fd_mean": 0.033575568853960604,
  "fd_num": 0,
  "fd_perc": 0.0,
  "fwhm_avg": 2.835718803888811,
  "fwhm_x": 2.72471308405027,
  "fwhm_y": 2.683197940245043,
  "fwhm_z": 3.09924538737112,
  "gcor": 0.00147688,
  "gsr_x": -0.018322773277759552,
  "gsr_y": 0.06423875689506531,
  "provenance": {
    "md5sum": "8f067dce94580c3ffa82bccfe53eb3c0",
    "settings": {
      "fd_thres": 0.2,
      "testing": false
    },
    "software": "mriqc",
    "version": "22.0.6",
    "webapi_port": null,
    "webapi_url": "https://mriqc.nimh.nih.gov/api/v1"
  },
  "size_t": 149,
  "size_x": 188,
  "size_y": 188,
  "size_z": 46,
  "snr": 2.060827246259496,
  "spacing_tr": 2.5999999046325684,
  "spacing_x": 1.0957447290420532,
  "spacing_y": 1.0957447290420532,
  "spacing_z": 1.100000023841858,
  "summary_bg_k": 52.57637268842878,
  "summary_bg_mad": 22.63704883325657,
  "summary_bg_mean": 80.81060028076172,
  "summary_bg_median": 46.845638275146484,
  "summary_bg_n": 1059434.0,
  "summary_bg_p05": 29.993288040161133,
  "summary_bg_p95": 239.41174316406233,
