{
  "aor": 0.0006153020134228188,
  "aqi": 0.0124183644295302,
  "bids_meta": {
    "AcquisitionMatrixPE": 188,
    "AcquisitionNumber": 1,
    "AcquisitionTime": "16:58:48.202500",
    "BandwidthPerPixelPhaseEncode": 19.46,
    "BaseResolution": 188,
    "CogAtlasID": "TODO",
    "ConversionSoftware": "dcm2niix",
    "ConversionSoftwareVersion": "v1.0.20180606 GCC4.8.5",
    "DelayTime": 1.2,
    "DerivedVendorReportedEchoSpacing": 0.000820013,
    "DeviceSerialNumber": "18930",
    "DwellTime": 1.9e-06,
    "EchoTime": 0.02,
    "EffectiveEchoSpacing": 0.000273338,
    "FlipAngle": 80,
    "ImageComments": "Unaliased_MB2_PE2",
    "ImageOrientationPatientDICOM": [
      0.999173,
      0.0356399,
      -0.0195491,
      -0.0249324,
      0.157486,
      -0.987206
    ],
    "ImageType": [
      "ORIGINAL",
      "PRIMARY",
      "M",
      "MB",
      "ND",
      "MOSAIC"
    ],
    "InPlanePhaseEncodingDirectionDICOM": "COL",
    "InstitutionAddress": "Oxfordlaan_55_Maastricht_753AAF_Limburg_NL_6229_EV",
    "InstitutionName": "Scannexus",
    "InstitutionalDepartmentName": "MRI_7T",
    "MRAcquisitionType": "2D",
    "MagneticFieldStrength": 6.98,
    "Manufacturer": "Siemens",
    "ManufacturersModelName": "Investigational_Device_7T",
    "Modality": "MR",
    "MultibandAccelerationFactor": 2,
    "ParallelReductionFactorInPlane": 3,
    "PartialFourier": 0.75,
    "PatientPosition": "HFS",
    "PercentPhaseFOV": 100,
    "PhaseEncodingDirection": "j",
    "PhaseEncodingSteps": 141,
    "PhaseResolution": 1,
    "PixelBandwidth": 1400,
    "ProcedureStepDescription": "FeDem_Faruk",
    "ProtocolName": "cmrr_mbep2d_bold_AP_run12",
    "PulseSequenceDetails": "%CustomerSeq%_cmrr_mbep2d_bold",
    "ReceiveCoilName": "32Ch_Head_7T",
    "ReconMatrixPE": 188,
    "RepetitionTime": 2.6,
    "SAR": 0.0630358,
    "ScanOptions": "PFP_FS",
    "ScanningSequence": "EP",
    "SequenceName": "epfid2d1_188",
    "SequenceVariant": "SK_SS",
    "SeriesDescription": "cmrr_mbep2d_bold_AP_run12",
    "SeriesNumber": 26,
    "ShimSetting": [
      54,
      -36,
      345,
      608,
      -240,
      461,
      258,
      248
    ],
    "SliceThickness": 1.1,
    "SliceTiming": [
      0,
      0.7325,
      0.06,
      0.7925,
      0.12,
      0.855,
      0.1825,
      0.915,
      0.2425,
      0.9775,
      0.305,
      1.0375,
      0.365,
      1.1,
      0.4275,
      1.16,
      0.4875,
      1.22,
      0.55,
      1.2825,
      0.61,
      1.3425,
      0.67,
      0,
      0.7325,
      0.06,
      0.7925,
      0.12,
      0.855,
      0.1825,
      0.915,
      0.2425,
      0.9775,
      0.305,
      1.0375,
      0.365,
      1.1,
      0.4275,
      1.16,
      0.4875,
      1.22,
      0.55,
      1.2825,
      0.61,
      1.3425,
      0.67
    ],
    "SoftwareVersions": "syngo_MR_B17",
    "SpacingBetweenSlices": 1.1,
    "StationName": "MRC18930",
    "TaskName": "auditory",
    "TotalReadoutTime": 0.0511141,
    "TxRefAmp": 195,
    "dataset": "ds001942",
    "dcmmeta_affine": [
      [
        -1.094839096069336,
        -0.027319511398673058,
        0.03531578183174133,
        101.3092041015625
      ],
      [
        -0.03905225917696953,
        0.17256446182727814,
        -1.0855656862258911,
        30.128551483154297
      ],
      [
        -0.02142079547047615,
        1.0817261934280396,
        0.1740688681602478,
        -117.70782470703125
      ],
      [
        0.0,
        0.0,
        0.0,
        1.0
      ]
    ],
    "dcmmeta_reorient_transform": [
      [
        0.0,
        -1.0,
        0.0,
        187.0
      ],
      [
        1.0,
        0.0,
        0.0,
        0.0
      ],
      [
        0.0,
        0.0,
        1.0,
        0.0
      ],
      [
        0.0,
        0.0,
        0.0,
        1.0
      ]
    ],
    "dcmmeta_shape": [
      188,
      188,
      46,
      150
    ],
    "dcmmeta_slice_dim": 2,
    "dcmmeta_version": 0.6,
    "global": {
      "const": {
        "AcquisitionMatrix": [
          188,
          0,
          0,
          188
        ],
        "AngioFlag": "N",
        "BitsAllocated": 16,
        "BitsStored": 12,
        "Columns": 1316,
        "EchoNumbers": 1,
        "EchoTime": 20.0,
        "EchoTrainLength": 1,
        "FlipAngle": 80.0,
        "HighBit": 11,
        "ImageOrientationPatient": [
          0.9991734731755,
          0.03563992392724,
          -0.0195490747831,
          -0.0249323689402,
          0.15748600827289,
          -0.9872064293638
        ],
        "ImagePositionPatient": [
          -698.28148280732,
          -181.74993727346,
          706.74991415591
        ],
        "ImageType": [
          "ORIGINAL",
          "PRIMARY",
          "M",
          "MB",
          "ND",
          "MOSAIC"
        ],
        "ImagedNucleus": "1H",
        "ImagingFrequency": 297.20568,
        "InPlanePhaseEncodingDirection": "COL",
        "LargestImagePixelValue": 4095,
        "MRAcquisitionType": "2D",
        "MagneticFieldStrength": 6.98,
        "Manufacturer": "SIEMENS",
        "ManufacturerModelName": "Investigational_Device_7T",
        "Modality": "MR",
        "NumberOfAverages": 1.0,
        "NumberOfPhaseEncodingSteps": 141,
        "PercentPhaseFieldOfView": 100.0,
        "PercentSampling": 100.0,
        "PerformedProcedureStepStartTime": "150445.390000",
        "PhotometricInterpretation": "MONOCHROME2",
        "PixelBandwidth": 1400.0,
        "PixelRepresentation": 0,
        "PixelSpacing": [
          1.0957447290421,
          1.0957447290421
        ],
        "ProtocolName": "cmrr_mbep2d_bold_AP_run12",
        "RepetitionTime": 2600.0,
        "Rows": 1316,
        "SAR": 0.06303578474156,
        "SamplesPerPixel": 1,
        "ScanOptions": [
          "PFP",
          "FS"
        ],
        "ScanningSequence": "EP",
        "SequenceName": "epfid2d1_188",
        "SequenceVariant": [
          "SK",
          "SS"
        ],
        "SeriesDescription": "cmrr_mbep2d_bold_AP_run12",
        "SeriesNumber": 26,
        "SeriesTime": "165858.156000",
        "SliceLocation": -45.107250061711,
        "SliceThickness": 1.1000000238419,
        "SmallestImagePixelValue": 0,
        "SoftwareVersions": "syngo MR B17",
        "SpacingBetweenSlices": 1.1000000170425,
        "SpecificCharacterSet": "ISO_IR 100",
        "StudyID": "1",
        "StudyTime": "150445.343000",
        "TransmitCoilName": "32Ch_Head_7T",
        "VariableFlipAngleFlag": "N",
        "WindowCenterWidthExplanation": "Algo1",
        "dBdt": 0.0
      },
      "slices": {}
    },
    "modality": "bold",
    "run_id": 12,
    "session_id": "SES02",
    "subject_id": "S09",
    "task_id": "auditory",
    "time": {
      "samples": {
        "AcquisitionNumber": [
          1,
          2,
          3,
          4,
          5,
          6,
          7,
          8,
          9,
          10,
          11,
          12,
          13,
          14,
          15,
          16,
          17,
          18,
          19,
          20,
          21,
          22,
          23,
          24,
          25,
          26,
          27,
          28,
          29,
          30,
          31,
          32,
          33,
          34,
          35,
          36,
          37,
          38,
          39,
          40,
          41,
          42,
          43,
          44,
          45,
          46,
          47,
          48,
          49,
          50,
          51,
          52,
          53,
          54,
          55,
          56,
          57,
          58,
          59,
          60,
          61,
          62,
          63,
          64,
          65,
          66,
          67,
          68,
          69,
          70,
          71,
          72,
          73,
          74,
          75,
          76,
          77,
          78,
          79,
          80,
          81,
          82,
          83,
          84,
          85,
          86,
          87,
          88,
          89,
          90,
          91,
          92,
          93,
          94,
          95,
          96,
          97,
          98,
          99,
          100,
          101,
          102,
          103,
          104,
          105,
          106,
          107,
          108,
          109,
          110,
          111,
          112,
          113,
          114,
          115,
          116,
          117,
          118,
          119,
          120,
          121,
          122,
          123,
          124,
          125,
          126,
          127,
          128,
          129,
          130,
          131,
          132,
          133,
          134,
          135,
          136,
          137,
          138,
          139,
          140,
          141,
          142,
          143,
          144,
          145,
          146,
          147,
          148,
          149,
          150
        ],
        "AcquisitionTime": [
          "165848.202500",
          "165850.812500",
          "165853.422500",
          "165856.032500",
          "165858.642500",
          "165901.252500",
          "165903.865000",
          "165906.475000",
          "165909.085000",
          "165911.695000",
          "165914.305000",
          "165916.917500",
          "165919.527500",
          "165922.137500",
          "165924.747500",
          "165927.357500",
          "165929.967500",
          "165932.580000",
          "165935.190000",
          "165937.800000",
          "165940.410000",
          "165943.020000",
          "165945.630000",
          "165948.242500",
          "165950.852500",
          "165953.462500",
          "165956.072500",
          "165958.682500",
          "170001.295000",
          "170003.905000",
          "170006.515000",
          "170009.125000",
          "170011.735000",
          "170014.345000",
          "170016.957500",
          "170019.567500",
          "170022.177500",
          "170024.787500",
          "170027.397500",
          "170030.007500",
          "170032.620000",
          "170035.230000",
          "170037.840000",
          "170040.450000",
          "170043.060000",
          "170045.672500",
          "170048.282500",
          "170050.892500",
          "170053.502500",
          "170056.112500",
          "170058.722500",
          "170101.335000",
          "170103.945000",
          "170106.555000",
          "170109.165000",
          "170111.775000",
          "170114.387500",
          "170116.997500",
          "170119.607500",
          "170122.217500",
          "170124.827500",
          "170127.437500",
          "170130.050000",
          "170132.660000",
          "170135.270000",
          "170137.880000",
          "170140.490000",
          "170143.100000",
          "170145.712500",
          "170148.322500",
          "170150.932500",
          "170153.542500",
          "170156.152500",
          "170158.765000",
          "170201.375000",
          "170203.985000",
          "170206.595000",
          "170209.205000",
          "170211.815000",
          "170214.427500",
          "170217.037500",
          "170219.647500",
          "170222.257500",
          "170224.867500",
          "170227.477500",
          "170230.090000",
          "170232.700000",
          "170235.310000",
          "170237.920000",
          "170240.530000",
          "170243.142500",
          "170245.752500",
          "170248.362500",
          "170250.972500",
          "170253.582500",
          "170256.192500",
          "170258.805000",
          "170301.415000",
          "170304.025000",
          "170306.635000",
          "170309.245000",
          "170311.855000",
          "170314.467500",
          "170317.077500",
          "170319.687500",
          "170322.297500",
          "170324.907500",
          "170327.520000",
          "170330.130000",
          "170332.740000",
          "170335.350000",
          "170337.960000",
          "170340.570000",
          "170343.182500",
          "170345.792500",
          "170348.402500",
          "170351.012500",
          "170353.622500",
          "170356.232500",
          "170358.845000",
          "170401.455000",
          "170404.065000",
          "170406.675000",
          "170409.285000",
          "170411.897500",
          "170414.507500",
          "170417.117500",
          "170419.727500",
          "170422.337500",
          "170424.947500",
          "170427.560000",
          "170430.170000",
          "170432.780000",
          "170435.390000",
          "170438.000000",
          "170440.610000",
          "170443.222500",
          "170445.832500",
          "170448.442500",
          "170451.052500",
          "170453.662500",
          "170456.275000",
          "170458.885000",
          "170501.495000",
          "170504.105000",
          "170506.715000",
          "170509.325000",
          "170511.937500",
          "170514.547500",
          "170517.157500"
        ],
        "ContentTime": [
          "165858.156000",
          "165858.656000",
          "165859.156000",
          "165901.156000",
          "165903.656000",
          "165906.656000",
          "165909.156000",
          "165911.656000",
          "165914.156000",
          "165916.656000",
          "165919.656000",
          "165922.156000",
          "165924.656000",
          "165927.156000",
          "165929.656000",
          "165932.656000",
          "165935.156000",
          "165937.656000",
          "165940.156000",
          "165942.656000",
          "165945.656000",
          "165948.156000",
          "165950.656000",
          "165953.156000",
          "165955.656000",
          "165958.656000",
          "170001.156000",
          "170003.656000",
          "170006.156000",
          "170008.656000",
          "170011.656000",
          "170014.156000",
          "170016.656000",
          "170019.156000",
          "170021.656000",
          "170024.656000",
          "170027.156000",
          "170029.656000",
          "170032.156000",
          "170034.656000",
          "170037.656000",
          "170040.156000",
          "170042.656000",
          "170045.156000",
          "170047.656000",
          "170050.656000",
          "170053.156000",
          "170055.656000",
          "170058.156000",
          "170100.656000",
          "170103.656000",
          "170106.156000",
          "170108.656000",
          "170111.156000",
          "170113.656000",
          "170116.656000",
          "170119.156000",
          "170121.656000",
          "170124.156000",
          "170126.656000",
          "170129.656000",
          "170132.156000",
          "170134.656000",
          "170137.156000",
          "170139.656000",
          "170142.656000",
          "170145.156000",
          "170147.656000",
          "170150.156000",
          "170152.656000",
          "170155.656000",
          "170158.156000",
          "170200.656000",
          "170203.156000",
          "170205.656000",
          "170208.656000",
          "170211.156000",
          "170213.656000",
          "170216.156000",
          "170218.656000",
          "170221.656000",
          "170224.156000",
          "170226.656000",
          "170229.156000",
          "170231.656000",
          "170234.656000",
          "170237.156000",
          "170239.656000",
          "170242.156000",
          "170244.656000",
          "170247.656000",
          "170250.156000",
          "170252.656000",
          "170255.156000",
          "170257.656000",
          "170300.656000",
          "170303.156000",
          "170305.656000",
          "170308.156000",
          "170310.656000",
          "170313.656000",
          "170316.156000",
          "170318.656000",
          "170321.156000",
          "170323.656000",
          "170326.656000",
          "170329.156000",
          "170331.656000",
          "170334.156000",
          "170336.656000",
          "170339.656000",
          "170342.156000",
          "170344.656000",
          "170347.156000",
          "170349.656000",
          "170352.656000",
          "170355.156000",
          "170357.656000",
          "170400.156000",
          "170402.656000",
          "170405.656000",
          "170408.156000",
          "170410.656000",
          "170413.156000",
          "170415.656000",
          "170418.656000",
          "170421.156000",
          "170423.656000",
          "170426.156000",
          "170428.656000",
          "170431.656000",
          "170434.156000",
          "170436.656000",
          "170439.156000",
          "170441.656000",
          "170444.656000",
          "170447.156000",
          "170449.656000",
          "170452.156000",
          "170454.656000",
          "170457.656000",
          "170500.156000",
          "170502.656000",
          "170505.156000",
          "170507.656000",
          "170510.656000",
          "170513.156000",
          "170515.656000",
          "170518.156000",
          "170525.593000"
        ],
        "InstanceCreationTime": [
          "165858.156000",
          "165858.656000",
          "165859.156000",
          "165901.156000",
          "165903.656000",
          "165906.656000",
          "165909.156000",
          "165911.656000",
          "165914.156000",
          "165916.656000",
          "165919.656000",
          "165922.156000",
          "165924.656000",
          "165927.156000",
          "165929.656000",
          "165932.656000",
          "165935.156000",
          "165937.656000",
          "165940.156000",
          "165942.656000",
          "165945.656000",
          "165948.156000",
          "165950.656000",
          "165953.156000",
          "165955.656000",
          "165958.656000",
          "170001.156000",
          "170003.656000",
          "170006.156000",
          "170008.656000",
          "170011.656000",
          "170014.156000",
          "170016.656000",
          "170019.156000",
          "170021.656000",
          "170024.656000",
          "170027.156000",
          "170029.656000",
          "170032.156000",
          "170034.656000",
          "170037.656000",
          "170040.156000",
          "170042.656000",
          "170045.156000",
          "170047.656000",
          "170050.656000",
          "170053.156000",
          "170055.656000",
          "170058.156000",
          "170100.656000",
          "170103.656000",
          "170106.156000",
          "170108.656000",
          "170111.156000",
          "170113.656000",
          "170116.656000",
          "170119.156000",
          "170121.656000",
          "170124.156000",
          "170126.656000",
          "170129.656000",
          "170132.156000",
          "170134.656000",
          "170137.156000",
          "170139.656000",
          "170142.656000",
          "170145.156000",
          "170147.656000",
          "170150.156000",
          "170152.656000",
          "170155.656000",
          "170158.156000",
          "170200.656000",
          "170203.156000",
          "170205.656000",
          "170208.656000",
          "170211.156000",
          "170213.656000",
          "170216.156000",
          "170218.656000",
          "170221.656000",
          "170224.156000",
          "170226.656000",
          "170229.156000",
          "170231.656000",
          "170234.656000",
          "170237.156000",
          "170239.656000",
          "170242.156000",
          "170244.656000",
          "170247.656000",
          "170250.156000",
          "170252.656000",
          "170255.156000",
          "170257.656000",
          "170300.656000",
          "170303.156000",
          "170305.656000",
          "170308.156000",
          "170310.656000",
          "170313.656000",
          "170316.156000",
          "170318.656000",
          "170321.156000",
          "170323.656000",
          "170326.656000",
          "170329.156000",
          "170331.656000",
          "170334.156000",
          "170336.656000",
          "170339.656000",
          "170342.156000",
          "170344.656000",
          "170347.156000",
          "170349.656000",
          "170352.656000",
          "170355.156000",
          "170357.656000",
          "170400.156000",
          "170402.656000",
          "170405.656000",
          "170408.156000",
          "170410.656000",
          "170413.156000",
          "170415.656000",
          "170418.656000",
          "170421.156000",
          "170423.656000",
          "170426.156000",
          "170428.656000",
          "170431.656000",
          "170434.156000",
          "170436.656000",
          "170439.156000",
          "170441.656000",
          "170444.656000",
          "170447.156000",
          "170449.656000",
          "170452.156000",
          "170454.656000",
          "170457.656000",
          "170500.156000",
          "170502.656000",
          "170505.156000",
          "170507.656000",
          "170510.656000",
          "170513.156000",
          "170515.656000",
          "170518.156000",
          "170525.593000"
        ],
        "InstanceNumber": [
          1,
          2,
          3,
          4,
          5,
          6,
          7,
          8,
          9,
          10,
          11,
          12,
          13,
          14,
          15,
          16,
          17,
          18,
          19,
          20,
          21,
          22,
          23,
          24,
          25,
          26,
          27,
          28,
          29,
          30,
          31,
          32,
          33,
          34,
          35,
          36,
          37,
          38,
          39,
          40,
          41,
          42,
          43,
          44,
          45,
          46,
          47,
          48,
          49,
          50,
          51,
          52,
          53,
          54,
          55,
          56,
          57,
          58,
          59,
          60,
          61,
          62,
          63,
          64,
          65,
          66,
          67,
          68,
          69,
          70,
          71,
          72,
          73,
          74,
          75,
          76,
          77,
          78,
          79,
          80,
          81,
          82,
          83,
          84,
          85,
          86,
          87,
          88,
          89,
          90,
          91,
          92,
          93,
          94,
          95,
          96,
          97,
          98,
          99,
          100,
          101,
          102,
          103,
          104,
          105,
          106,
          107,
          108,
          109,
          110,
          111,
          112,
          113,
          114,
          115,
          116,
          117,
          118,
          119,
          120,
          121,
          122,
          123,
          124,
          125,
          126,
          127,
          128,
          129,
          130,
          131,
          132,
          133,
          134,
          135,
          136,
          137,
          138,
          139,
          140,
          141,
          142,
          143,
          144,
          145,
          146,
          147,
          148,
          149,
          150
        ],
        "WindowCenter": [
          866.0,
          864.0,
          863.0,
          864.0,
          863.0,
          863.0,
          863.0,
          864.0,
          863.0,
          862.0,
          863.0,
          863.0,
          862.0,
          863.0,
          864.0,
          864.0,
          863.0,
          864.0,
          864.0,
          864.0,
          864.0,
          864.0,
          863.0,
          863.0,
          862.0,
          862.0,
          863.0,
          864.0,
          862.0,
          862.0,
          863.0,
          864.0,
          863.0,
          863.0,
          864.0,
          863.0,
          863.0,
          862.0,
          863.0,
          863.0,
          862.0,
          863.0,
          863.0,
          863.0,
          863.0,
          864.0,
          863.0,
          863.0,
          865.0,
          864.0,
          863.0,
          863.0,
          864.0,
          865.0,
          864.0,
          863.0,
          864.0,
          863.0,
          863.0,
          863.0,
          863.0,
          863.0,
          863.0,
          863.0,
          863.0,
          862.0,
          863.0,
          863.0,
          864.0,
          864.0,
          864.0,
          864.0,
          864.0,
          863.0,
          863.0,
          863.0,
          863.0,
          863.0,
          863.0,
          864.0,
          864.0,
          864.0,
          865.0,
          863.0,
          862.0,
          863.0,
          863.0,
          863.0,
          863.0,
          863.0,
          863.0,
          863.0,
          863.0,
          863.0,
          864.0,
          864.0,
          864.0,
          864.0,
          863.0,
          863.0,
          863.0,
          863.0,
          863.0,
          863.0,
          863.0,
          864.0,
          864.0,
          864.0,
          863.0,
          864.0,
          862.0,
          862.0,
          862.0,
          862.0,
          863.0,
          863.0,
          863.0,
          863.0,
          864.0,
          863.0,
          863.0,
          863.0,
          865.0,
          865.0,
          864.0,
          863.0,
          864.0,
          863.0,
          863.0,
          863.0,
          864.0,
          864.0,
          864.0,
          864.0,
          864.0,
          863.0,
          863.0,
          864.0,
          864.0,
          863.0,
          863.0,
          864.0,
          865.0,
          864.0,
          864.0,
          864.0,
          864.0,
          864.0,
          865.0,
          864.0
        ],
        "WindowWidth": [
          1988.0,
          1980.0,
          1979.0,
          1981.0,
          1979.0,
          1977.0,
          1979.0,
          1980.0,
          1979.0,
          1976.0,
          1977.0,
          1978.0,
          1976.0,
          1978.0,
          1981.0,
          1981.0,
          1980.0,
          1981.0,
          1980.0,
          1982.0,
          1981.0,
          1980.0,
          1978.0,
          1979.0,
          1976.0,
          1975.0,
          1979.0,
          1984.0,
          1977.0,
          1974.0,
          1980.0,
          1983.0,
          1980.0,
          1979.0,
          1981.0,
          1979.0,
          1979.0,
          1976.0,
          1979.0,
          1977.0,
          1976.0,
          1977.0,
          1979.0,
          1978.0,
          1979.0,
          1980.0,
          1978.0,
          1979.0,
          1985.0,
          1981.0,
          1978.0,
          1978.0,
          1981.0,
          1986.0,
          1981.0,
          1979.0,
          1980.0,
          1980.0,
          1979.0,
          1978.0,
          1977.0,
          1978.0,
          1979.0,
          1979.0,
          1977.0,
          1976.0,
          1977.0,
          1980.0,
          1981.0,
          1981.0,
          1981.0,
          1981.0,
          1981.0,
          1979.0,
          1979.0,
          1976.0,
          1977.0,
          1979.0,
          1979.0,
          1980.0,
          1980.0,
          1983.0,
          1984.0,
          1979.0,
          1975.0,
          1978.0,
          1978.0,
          1980.0,
          1978.0,
          1977.0,
          1978.0,
          1977.0,
          1976.0,
          1979.0,
          1980.0,
          1982.0,
          1982.0,
          1981.0,
          1978.0,
          1979.0,
          1978.0,
          1978.0,
          1977.0,
          1979.0,
          1980.0,
          1981.0,
          1982.0,
          1981.0,
          1979.0,
          1980.0,
          1975.0,
          1975.0,
          1975.0,
          1975.0,
          1977.0,
          1979.0,
          1977.0,
          1978.0,
          1981.0,
          1980.0,
          1979.0,
          1979.0,
          1985.0,
          1986.0,
          1980.0,
          1979.0,
          1981.0,
          1979.0,
          1978.0,
          1978.0,
          1981.0,
          1981.0,
          1981.0,
          1981.0,
          1981.0,
          1978.0,
          1977.0,
          1982.0,
          1982.0,
          1978.0,
          1978.0,
          1983.0,
          1983.0,
          1983.0,
          1981.0,
          1980.0,
          1981.0,
          1980.0,
          1984.0,
          1982.0
        ]
      },
      "slices": {}
    }
  },
  "dummy_trs": 1,
  "dvars_nstd": 69.0555358579054,
  "dvars_std": 1.0298841634459464,
  "dvars_vstd": 1.0125347270270266,
  "efc": 0.555240722792854,
  "fber": 370.5706787109375,
  "fd_mean": 0.03458168842749415,
  "fd_num": 0,
  "fd_perc": 0.0,
  "fwhm_avg": 2.832621952044793,
  "fwhm_x": 2.7110693953299325,
  "fwhm_y": 2.6828328917174087,
  "fwhm_z": 3.1039635690870377,
  "gcor": 0.00104012,
  "gsr_x": -0.0181269608438015,
  "gsr_y": 0.06489325314760208,
  "provenance": {
    "md5sum": "8a04685c01a51b110a72713e6a46ca86",
    "settings": {
      "fd_thres": 0.2,
      "testing": false
    },
    "software": "mriqc",
    "version": "22.0.6",
    "webapi_port": null,
    "webapi_url": "https://mriqc.nimh.nih.gov/api/v1"
  },
  "size_t": 149,
  "size_x": 188,
  "size_y": 188,
  "size_z": 46,
  "snr": 2.0642427168350426,
  "spacing_tr": 2.5999999046325684,
  "spacing_x": 1.0957447290420532,
  "spacing_y": 1.0957447290420532,
  "spacing_z": 1.100000023841858,
  "summary_bg_k": 51.545926590522576,
  "summary_bg_mad": 23.054961066345733,
  "summary_bg_mean": 81.61515808105469,
  "summary_bg_median": 47.268455505371094,
  "summary_bg_n": 1059361.0,
  "summary_bg_p05": 30.006711959838867,
  "summary_bg_p95": 242.328857421875,
