{
  "aor": 0.0006301333333333333,
  "aqi": 0.013030284,
  "bids_meta": {
    "AcquisitionMatrixPE": 188,
    "AcquisitionNumber": 1,
    "AcquisitionTime": "16:43:20.307500",
    "BandwidthPerPixelPhaseEncode": 19.46,
    "BaseResolution": 188,
    "ConversionSoftware": "dcm2niix",
    "ConversionSoftwareVersion": "v1.0.20180606 GCC4.8.5",
    "DelayTime": 1.2,
    "DerivedVendorReportedEchoSpacing": 0.000820013,
    "DeviceSerialNumber": "18930",
    "DwellTime": 1.9e-06,
    "EchoTime": 0.02,
    "EffectiveEchoSpacing": 0.000273338,
    "FlipAngle": 80,
    "ImageComments": "Unaliased_MB2_PE2",
    "ImageOrientationPatientDICOM": [
      0.999173,
      0.0356399,
      -0.0195491,
      -0.0249324,
      0.157486,
      -0.987206
    ],
    "ImageType": [
      "ORIGINAL",
      "PRIMARY",
      "M",
      "MB",
      "ND",
      "MOSAIC"
    ],
    "InPlanePhaseEncodingDirectionDICOM": "COL",
    "InstitutionAddress": "Oxfordlaan_55_Maastricht_753AAF_Limburg_NL_6229_EV",
    "InstitutionName": "Scannexus",
    "InstitutionalDepartmentName": "MRI_7T",
    "MRAcquisitionType": "2D",
    "MagneticFieldStrength": 6.98,
    "Manufacturer": "Siemens",
    "ManufacturersModelName": "Investigational_Device_7T",
    "Modality": "MR",
    "MultibandAccelerationFactor": 2,
    "ParallelReductionFactorInPlane": 3,
    "PartialFourier": 0.75,
    "PatientPosition": "HFS",
    "PercentPhaseFOV": 100,
    "PhaseEncodingDirection": "j",
    "PhaseEncodingSteps": 141,
    "PhaseResolution": 1,
    "PixelBandwidth": 1400,
    "ProcedureStepDescription": "FeDem_Faruk",
    "ProtocolName": "cmrr_mbep2d_bold_AP_run10",
    "PulseSequenceDetails": "%CustomerSeq%_cmrr_mbep2d_bold",
    "ReceiveCoilName": "32Ch_Head_7T",
    "ReconMatrixPE": 188,
    "RepetitionTime": 2.6,
    "SAR": 0.0631226,
    "ScanOptions": "PFP_FS",
    "ScanningSequence": "EP",
    "SequenceName": "epfid2d1_188",
    "SequenceVariant": "SK_SS",
    "SeriesDescription": "cmrr_mbep2d_bold_AP_run10",
    "SeriesNumber": 24,
    "ShimSetting": [
      54,
      -36,
      345,
      608,
      -240,
      461,
      258,
      248
    ],
    "SliceThickness": 1.1,
    "SliceTiming": [
      0,
      0.7325,
      0.06,
      0.795,
      0.1225,
      0.855,
      0.1825,
      0.915,
      0.245,
      0.9775,
      0.305,
      1.0375,
      0.365,
      1.1,
      0.4275,
      1.16,
      0.4875,
      1.2225,
      0.55,
      1.2825,
      0.61,
      1.345,
      0.6725,
      0,
      0.7325,
      0.06,
      0.795,
      0.1225,
      0.855,
      0.1825,
      0.915,
      0.245,
      0.9775,
      0.305,
      1.0375,
      0.365,
      1.1,
      0.4275,
      1.16,
      0.4875,
      1.2225,
      0.55,
      1.2825,
      0.61,
      1.345,
      0.6725
    ],
    "SoftwareVersions": "syngo_MR_B17",
    "SpacingBetweenSlices": 1.1,
    "StationName": "MRC18930",
    "TaskName": "auditory",
    "TotalReadoutTime": 0.0511141,
    "TxRefAmp": 195,
    "dataset": "ds001942",
    "dcmmeta_affine": [
      [
        -1.094839096069336,
        -0.027319511398673058,
        0.03531578183174133,
        101.3092041015625
      ],
      [
        -0.03905225917696953,
        0.17256446182727814,
        -1.0855656862258911,
        30.128551483154297
      ],
      [
        -0.02142079547047615,
        1.0817261934280396,
        0.1740688681602478,
        -117.70782470703125
      ],
      [
        0.0,
        0.0,
        0.0,
        1.0
      ]
    ],
    "dcmmeta_reorient_transform": [
      [
        0.0,
        -1.0,
        0.0,
        187.0
      ],
      [
        1.0,
        0.0,
        0.0,
        0.0
      ],
      [
        0.0,
        0.0,
        1.0,
        0.0
      ],
      [
        0.0,
        0.0,
        0.0,
        1.0
      ]
    ],
    "dcmmeta_shape": [
      188,
      188,
      46,
      150
    ],
    "dcmmeta_slice_dim": 2,
    "dcmmeta_version": 0.6,
    "global": {
      "const": {
        "AcquisitionMatrix": [
          188,
          0,
          0,
          188
        ],
        "AngioFlag": "N",
        "BitsAllocated": 16,
        "BitsStored": 12,
        "Columns": 1316,
        "EchoNumbers": 1,
        "EchoTime": 20.0,
        "EchoTrainLength": 1,
        "FlipAngle": 80.0,
        "HighBit": 11,
        "ImageOrientationPatient": [
          0.9991734731755,
          0.03563992392724,
          -0.0195490747831,
          -0.0249323689402,
          0.15748600827289,
          -0.9872064293638
        ],
        "ImagePositionPatient": [
          -698.28148280732,
          -181.74993727346,
          706.74991415591
        ],
        "ImageType": [
          "ORIGINAL",
          "PRIMARY",
          "M",
          "MB",
          "ND",
          "MOSAIC"
        ],
        "ImagedNucleus": "1H",
        "ImagingFrequency": 297.20568,
        "InPlanePhaseEncodingDirection": "COL",
        "LargestImagePixelValue": 4095,
        "MRAcquisitionType": "2D",
        "MagneticFieldStrength": 6.98,
        "Manufacturer": "SIEMENS",
        "ManufacturerModelName": "Investigational_Device_7T",
        "Modality": "MR",
        "NumberOfAverages": 1.0,
        "NumberOfPhaseEncodingSteps": 141,
        "PercentPhaseFieldOfView": 100.0,
        "PercentSampling": 100.0,
        "PerformedProcedureStepStartTime": "150445.390000",
        "PhotometricInterpretation": "MONOCHROME2",
        "PixelBandwidth": 1400.0,
        "PixelRepresentation": 0,
        "PixelSpacing": [
          1.0957447290421,
          1.0957447290421
        ],
        "ProtocolName": "cmrr_mbep2d_bold_AP_run10",
        "RepetitionTime": 2600.0,
        "Rows": 1316,
        "SAR": 0.06312264068406,
        "SamplesPerPixel": 1,
        "ScanOptions": [
          "PFP",
          "FS"
        ],
        "ScanningSequence": "EP",
        "SequenceName": "epfid2d1_188",
        "SequenceVariant": [
          "SK",
          "SS"
        ],
        "SeriesDescription": "cmrr_mbep2d_bold_AP_run10",
        "SeriesNumber": 24,
        "SeriesTime": "164329.421000",
        "SliceLocation": -45.107250061711,
        "SliceThickness": 1.1000000238419,
        "SmallestImagePixelValue": 0,
        "SoftwareVersions": "syngo MR B17",
        "SpacingBetweenSlices": 1.1000000170425,
        "SpecificCharacterSet": "ISO_IR 100",
        "StudyID": "1",
        "StudyTime": "150445.343000",
        "TransmitCoilName": "32Ch_Head_7T",
        "VariableFlipAngleFlag": "N",
        "WindowCenterWidthExplanation": "Algo1",
        "dBdt": 0.0
      },
      "slices": {}
    },
    "modality": "bold",
    "run_id": 10,
    "session_id": "SES02",
    "subject_id": "S09",
    "task_id": "auditory",
    "time": {
      "samples": {
        "AcquisitionNumber": [
          1,
          2,
          3,
          4,
          5,
          6,
          7,
          8,
          9,
          10,
          11,
          12,
          13,
          14,
          15,
          16,
          17,
          18,
          19,
          20,
          21,
          22,
          23,
          24,
          25,
          26,
          27,
          28,
          29,
          30,
          31,
          32,
          33,
          34,
          35,
          36,
          37,
          38,
          39,
          40,
          41,
          42,
          43,
          44,
          45,
          46,
          47,
          48,
          49,
          50,
          51,
          52,
          53,
          54,
          55,
          56,
          57,
          58,
          59,
          60,
          61,
          62,
          63,
          64,
          65,
          66,
          67,
          68,
          69,
          70,
          71,
          72,
          73,
          74,
          75,
          76,
          77,
          78,
          79,
          80,
          81,
          82,
          83,
          84,
          85,
          86,
          87,
          88,
          89,
          90,
          91,
          92,
          93,
          94,
          95,
          96,
          97,
          98,
          99,
          100,
          101,
          102,
          103,
          104,
          105,
          106,
          107,
          108,
          109,
          110,
          111,
          112,
          113,
          114,
          115,
          116,
          117,
          118,
          119,
          120,
          121,
          122,
          123,
          124,
          125,
          126,
          127,
          128,
          129,
          130,
          131,
          132,
          133,
          134,
          135,
          136,
          137,
          138,
          139,
          140,
          141,
          142,
          143,
          144,
          145,
          146,
          147,
          148,
          149,
          150
        ],
        "AcquisitionTime": [
          "164320.307500",
          "164322.917500",
          "164325.527500",
          "164328.137500",
          "164330.750000",
          "164333.360000",
          "164335.970000",
          "164338.580000",
          "164341.190000",
          "164343.800000",
          "164346.412500",
          "164349.022500",
          "164351.632500",
          "164354.242500",
          "164356.852500",
          "164359.462500",
          "164402.075000",
          "164404.685000",
          "164407.295000",
          "164409.905000",
          "164412.515000",
          "164415.127500",
          "164417.737500",
          "164420.347500",
          "164422.957500",
          "164425.567500",
          "164428.177500",
          "164430.790000",
          "164433.400000",
          "164436.010000",
          "164438.620000",
          "164441.230000",
          "164443.840000",
          "164446.452500",
          "164449.062500",
          "164451.672500",
          "164454.282500",
          "164456.892500",
          "164459.505000",
          "164502.115000",
          "164504.725000",
          "164507.335000",
          "164509.945000",
          "164512.555000",
          "164515.167500",
          "164517.777500",
          "164520.387500",
          "164522.997500",
          "164525.607500",
          "164528.217500",
          "164530.830000",
          "164533.440000",
          "164536.050000",
          "164538.660000",
          "164541.270000",
          "164543.882500",
          "164546.492500",
          "164549.102500",
          "164551.712500",
          "164554.322500",
          "164556.932500",
          "164559.545000",
          "164602.155000",
          "164604.765000",
          "164607.375000",
          "164609.985000",
          "164612.595000",
          "164615.207500",
          "164617.817500",
          "164620.427500",
          "164623.037500",
          "164625.647500",
          "164628.260000",
          "164630.870000",
          "164633.480000",
          "164636.090000",
          "164638.700000",
          "164641.310000",
          "164643.922500",
          "164646.532500",
          "164649.142500",
          "164651.752500",
          "164654.362500",
          "164656.972500",
          "164659.585000",
          "164702.195000",
          "164704.805000",
          "164707.415000",
          "164710.025000",
          "164712.637500",
          "164715.247500",
          "164717.857500",
          "164720.467500",
          "164723.077500",
          "164725.687500",
          "164728.300000",
          "164730.910000",
          "164733.520000",
          "164736.130000",
          "164738.740000",
          "164741.350000",
          "164743.962500",
          "164746.572500",
          "164749.182500",
          "164751.792500",
          "164754.402500",
          "164757.015000",
          "164759.625000",
          "164802.235000",
          "164804.845000",
          "164807.455000",
          "164810.065000",
          "164812.677500",
          "164815.287500",
          "164817.897500",
          "164820.507500",
          "164823.117500",
          "164825.727500",
          "164828.340000",
          "164830.950000",
          "164833.560000",
          "164836.170000",
          "164838.780000",
          "164841.392500",
          "164844.002500",
          "164846.612500",
          "164849.222500",
          "164851.832500",
          "164854.442500",
          "164857.055000",
          "164859.665000",
          "164902.275000",
          "164904.885000",
          "164907.495000",
          "164910.105000",
          "164912.717500",
          "164915.327500",
          "164917.937500",
          "164920.547500",
          "164923.157500",
          "164925.770000",
          "164928.380000",
          "164930.990000",
          "164933.600000",
          "164936.210000",
          "164938.820000",
          "164941.432500",
          "164944.042500",
          "164946.652500",
          "164949.262500"
        ],
        "ContentTime": [
          "164329.437000",
          "164329.921000",
          "164330.421000",
          "164332.421000",
          "164334.921000",
          "164337.921000",
          "164340.421000",
          "164342.921000",
          "164345.421000",
          "164347.921000",
          "164350.921000",
          "164353.421000",
          "164355.921000",
          "164358.421000",
          "164400.921000",
          "164403.921000",
          "164406.421000",
          "164408.921000",
          "164411.421000",
          "164413.921000",
          "164416.921000",
          "164419.421000",
          "164421.921000",
          "164424.421000",
          "164426.921000",
          "164429.921000",
          "164432.421000",
          "164434.921000",
          "164437.421000",
          "164439.921000",
          "164442.921000",
          "164445.421000",
          "164447.921000",
          "164450.421000",
          "164452.921000",
          "164455.921000",
          "164458.421000",
          "164500.921000",
          "164503.421000",
          "164505.921000",
          "164508.921000",
          "164511.421000",
          "164513.921000",
          "164516.421000",
          "164518.921000",
          "164521.921000",
          "164524.421000",
          "164526.921000",
          "164529.421000",
          "164531.921000",
          "164534.921000",
          "164537.421000",
          "164539.921000",
          "164542.421000",
          "164544.921000",
          "164547.921000",
          "164550.421000",
          "164552.921000",
          "164555.421000",
          "164557.921000",
          "164600.921000",
          "164603.421000",
          "164605.921000",
          "164608.421000",
          "164610.921000",
          "164613.921000",
          "164616.421000",
          "164618.921000",
          "164621.421000",
          "164623.921000",
          "164626.921000",
          "164629.421000",
          "164631.921000",
          "164634.421000",
          "164636.921000",
          "164639.921000",
          "164642.421000",
          "164644.921000",
          "164647.421000",
          "164649.921000",
          "164652.921000",
          "164655.421000",
          "164657.921000",
          "164700.421000",
          "164702.921000",
          "164705.921000",
          "164708.421000",
          "164710.921000",
          "164713.421000",
          "164715.921000",
          "164718.921000",
          "164721.421000",
          "164723.921000",
          "164726.421000",
          "164728.921000",
          "164731.921000",
          "164734.421000",
          "164736.921000",
          "164739.421000",
          "164741.921000",
          "164744.921000",
          "164747.421000",
          "164749.921000",
          "164752.421000",
          "164754.921000",
          "164757.921000",
          "164800.421000",
          "164802.921000",
          "164805.421000",
          "164807.921000",
          "164810.921000",
          "164813.421000",
          "164815.921000",
          "164818.421000",
          "164820.921000",
          "164823.921000",
          "164826.421000",
          "164828.921000",
          "164831.421000",
          "164833.921000",
          "164836.921000",
          "164839.421000",
          "164841.921000",
          "164844.421000",
          "164846.921000",
          "164849.921000",
          "164852.421000",
          "164854.921000",
          "164857.421000",
          "164859.921000",
          "164902.921000",
          "164905.421000",
          "164907.921000",
          "164910.421000",
          "164912.921000",
          "164915.921000",
          "164918.421000",
          "164920.921000",
          "164923.421000",
          "164925.921000",
          "164928.921000",
          "164931.421000",
          "164933.921000",
          "164936.421000",
          "164938.921000",
          "164941.921000",
          "164944.421000",
          "164946.921000",
          "164949.421000",
          "164956.859000"
        ],
        "InstanceCreationTime": [
          "164329.437000",
          "164329.921000",
          "164330.421000",
          "164332.421000",
          "164334.921000",
          "164337.921000",
          "164340.421000",
          "164342.921000",
          "164345.421000",
          "164347.921000",
          "164350.921000",
          "164353.421000",
          "164355.921000",
          "164358.421000",
          "164400.921000",
          "164403.921000",
          "164406.421000",
          "164408.921000",
          "164411.421000",
          "164413.921000",
          "164416.921000",
          "164419.421000",
          "164421.921000",
          "164424.421000",
          "164426.921000",
          "164429.921000",
          "164432.421000",
          "164434.921000",
          "164437.421000",
          "164439.921000",
          "164442.921000",
          "164445.421000",
          "164447.921000",
          "164450.421000",
          "164452.921000",
          "164455.921000",
          "164458.421000",
          "164500.921000",
          "164503.421000",
          "164505.921000",
          "164508.921000",
          "164511.421000",
          "164513.921000",
          "164516.421000",
          "164518.921000",
          "164521.921000",
          "164524.421000",
          "164526.921000",
          "164529.421000",
          "164531.921000",
          "164534.921000",
          "164537.421000",
          "164539.921000",
          "164542.421000",
          "164544.921000",
          "164547.921000",
          "164550.421000",
          "164552.921000",
          "164555.421000",
          "164557.921000",
          "164600.921000",
          "164603.421000",
          "164605.921000",
          "164608.421000",
          "164610.921000",
          "164613.921000",
          "164616.421000",
          "164618.921000",
          "164621.421000",
          "164623.921000",
          "164626.921000",
          "164629.421000",
          "164631.921000",
          "164634.421000",
          "164636.921000",
          "164639.921000",
          "164642.421000",
          "164644.921000",
          "164647.421000",
          "164649.921000",
          "164652.921000",
          "164655.421000",
          "164657.921000",
          "164700.421000",
          "164702.921000",
          "164705.921000",
          "164708.421000",
          "164710.921000",
          "164713.421000",
          "164715.921000",
          "164718.921000",
          "164721.421000",
          "164723.921000",
          "164726.421000",
          "164728.921000",
          "164731.921000",
          "164734.421000",
          "164736.921000",
          "164739.421000",
          "164741.921000",
          "164744.921000",
          "164747.421000",
          "164749.921000",
          "164752.421000",
          "164754.921000",
          "164757.921000",
          "164800.421000",
          "164802.921000",
          "164805.421000",
          "164807.921000",
          "164810.921000",
          "164813.421000",
          "164815.921000",
          "164818.421000",
          "164820.921000",
          "164823.921000",
          "164826.421000",
          "164828.921000",
          "164831.421000",
          "164833.921000",
          "164836.921000",
          "164839.421000",
          "164841.921000",
          "164844.421000",
          "164846.921000",
          "164849.921000",
          "164852.421000",
          "164854.921000",
          "164857.421000",
          "164859.921000",
          "164902.921000",
          "164905.421000",
          "164907.921000",
          "164910.421000",
          "164912.921000",
          "164915.921000",
          "164918.421000",
          "164920.921000",
          "164923.421000",
          "164925.921000",
          "164928.921000",
          "164931.421000",
          "164933.921000",
          "164936.421000",
          "164938.921000",
          "164941.921000",
          "164944.421000",
          "164946.921000",
          "164949.421000",
          "164956.859000"
        ],
        "InstanceNumber": [
          1,
          2,
          3,
          4,
          5,
          6,
          7,
          8,
          9,
          10,
          11,
          12,
          13,
          14,
          15,
          16,
          17,
          18,
          19,
          20,
          21,
          22,
          23,
          24,
          25,
          26,
          27,
          28,
          29,
          30,
          31,
          32,
          33,
          34,
          35,
          36,
          37,
          38,
          39,
          40,
          41,
          42,
          43,
          44,
          45,
          46,
          47,
          48,
          49,
          50,
          51,
          52,
          53,
          54,
          55,
          56,
          57,
          58,
          59,
          60,
          61,
          62,
          63,
          64,
          65,
          66,
          67,
          68,
          69,
          70,
          71,
          72,
          73,
          74,
          75,
          76,
          77,
          78,
          79,
          80,
          81,
          82,
          83,
          84,
          85,
          86,
          87,
          88,
          89,
          90,
          91,
          92,
          93,
          94,
          95,
          96,
          97,
          98,
          99,
          100,
          101,
          102,
          103,
          104,
          105,
          106,
          107,
          108,
          109,
          110,
          111,
          112,
          113,
          114,
          115,
          116,
          117,
          118,
          119,
          120,
          121,
          122,
          123,
          124,
          125,
          126,
          127,
          128,
          129,
          130,
          131,
          132,
          133,
          134,
          135,
          136,
          137,
          138,
          139,
          140,
          141,
          142,
          143,
          144,
          145,
          146,
          147,
          148,
          149,
          150
        ],
        "WindowCenter": [
          865.0,
          864.0,
          863.0,
          862.0,
          862.0,
          863.0,
          863.0,
          862.0,
          862.0,
          863.0,
          863.0,
          862.0,
          862.0,
          863.0,
          862.0,
          861.0,
          862.0,
          862.0,
          863.0,
          862.0,
          861.0,
          861.0,
          861.0,
          861.0,
          861.0,
          861.0,
          862.0,
          862.0,
          862.0,
          863.0,
          862.0,
          862.0,
          862.0,
          863.0,
          865.0,
          865.0,
          864.0,
          862.0,
          862.0,
          863.0,
          863.0,
          862.0,
          861.0,
          862.0,
          863.0,
          862.0,
          861.0,
          863.0,
          864.0,
          864.0,
          863.0,
          864.0,
          863.0,
          863.0,
          862.0,
          862.0,
          862.0,
          863.0,
          862.0,
          862.0,
          862.0,
          863.0,
          863.0,
          863.0,
          862.0,
          863.0,
          863.0,
          862.0,
          862.0,
          862.0,
          863.0,
          864.0,
          864.0,
          863.0,
          863.0,
          863.0,
          862.0,
          861.0,
          861.0,
          862.0,
          863.0,
          863.0,
          863.0,
          864.0,
          862.0,
          861.0,
          862.0,
          863.0,
          863.0,
          862.0,
          863.0,
          863.0,
          862.0,
          864.0,
          866.0,
          863.0,
          861.0,
          861.0,
          862.0,
          862.0,
          863.0,
          862.0,
          862.0,
          862.0,
          863.0,
          863.0,
          862.0,
          862.0,
          862.0,
          863.0,
          863.0,
          863.0,
          863.0,
          863.0,
          863.0,
          863.0,
          863.0,
          863.0,
          863.0,
          863.0,
          863.0,
          864.0,
          863.0,
          864.0,
          864.0,
          863.0,
          863.0,
          864.0,
          865.0,
          863.0,
          862.0,
          863.0,
          862.0,
          862.0,
          863.0,
          863.0,
          863.0,
          863.0,
          863.0,
          863.0,
          864.0,
          864.0,
          864.0,
          864.0,
          863.0,
          861.0,
          861.0,
          862.0,
          862.0,
          862.0
        ],
        "WindowWidth": [
          1987.0,
          1981.0,
          1979.0,
          1976.0,
          1976.0,
          1980.0,
          1978.0,
          1975.0,
          1975.0,
          1980.0,
          1979.0,
          1975.0,
          1976.0,
          1980.0,
          1977.0,
          1973.0,
          1974.0,
          1977.0,
          1979.0,
          1976.0,
          1972.0,
          1972.0,
          1973.0,
          1973.0,
          1973.0,
          1972.0,
          1975.0,
          1976.0,
          1975.0,
          1979.0,
          1976.0,
          1976.0,
          1977.0,
          1980.0,
          1986.0,
          1988.0,
          1983.0,
          1977.0,
          1976.0,
          1980.0,
          1977.0,
          1974.0,
          1972.0,
          1978.0,
          1979.0,
          1974.0,
          1974.0,
          1979.0,
          1982.0,
          1981.0,
          1980.0,
          1981.0,
          1980.0,
          1977.0,
          1975.0,
          1974.0,
          1978.0,
          1977.0,
          1975.0,
          1974.0,
          1974.0,
          1977.0,
          1980.0,
          1979.0,
          1977.0,
          1978.0,
          1979.0,
          1977.0,
          1975.0,
          1977.0,
          1978.0,
          1981.0,
          1981.0,
          1980.0,
          1980.0,
          1978.0,
          1975.0,
          1972.0,
          1971.0,
          1974.0,
          1977.0,
          1977.0,
          1980.0,
          1980.0,
          1975.0,
          1973.0,
          1976.0,
          1980.0,
          1977.0,
          1975.0,
          1979.0,
          1980.0,
          1977.0,
          1984.0,
          1990.0,
          1978.0,
          1971.0,
          1974.0,
          1974.0,
          1978.0,
          1977.0,
          1976.0,
          1976.0,
          1977.0,
          1978.0,
          1977.0,
          1975.0,
          1976.0,
          1976.0,
          1977.0,
          1978.0,
          1980.0,
          1979.0,
          1980.0,
          1978.0,
          1977.0,
          1978.0,
          1978.0,
          1977.0,
          1979.0,
          1979.0,
          1980.0,
          1980.0,
          1983.0,
          1982.0,
          1979.0,
          1979.0,
          1983.0,
          1986.0,
          1978.0,
          1974.0,
          1977.0,
          1976.0,
          1977.0,
          1977.0,
          1979.0,
          1979.0,
          1978.0,
          1978.0,
          1979.0,
          1983.0,
          1981.0,
          1981.0,
          1984.0,
          1979.0,
          1972.0,
          1972.0,
          1975.0,
          1976.0,
          1975.0
        ]
      },
      "slices": {}
    }
  },
  "dummy_trs": 0,
  "dvars_nstd": 69.30730335791948,
  "dvars_std": 1.0359425959060404,
  "dvars_vstd": 1.0161846255704698,
  "efc": 0.5550974694697643,
  "fber": 372.6182556152344,
  "fd_mean": 0.032738775515553806,
  "fd_num": 0,
  "fd_perc": 0.0,
  "fwhm_avg": 2.828794243945866,
  "fwhm_x": 2.732762404084609,
  "fwhm_y": 2.6655022128679637,
  "fwhm_z": 3.088118114885024,
  "gcor": 0.00191042,
  "gsr_x": -0.012173567898571491,
  "gsr_y": 0.06237621232867241,
  "provenance": {
    "md5sum": "762bf045634c9d4080e13b822d737779",
    "settings": {
      "fd_thres": 0.2,
      "testing": false
    },
    "software": "mriqc",
    "version": "23.0.1",
    "webapi_port": null,
    "webapi_url": "https://mriqc.nimh.nih.gov/api/v1"
  },
  "size_t": 150,
  "size_x": 188,
  "size_y": 188,
  "size_z": 46,
  "snr": 2.076991301248696,
  "spacing_tr": 2.5999999046325684,
  "spacing_x": 1.0957447290420532,
  "spacing_y": 1.0957447290420532,
  "spacing_z": 1.100000023841858,
  "summary_bg_k": 48.690492106537086,
  "summary_bg_mad": 23.395464026040553,
  "summary_bg_mean": 83.81185150146484,
  "summary_bg_median": 47.43333435058594,
  "summary_bg_n": 1066687.0,
  "summary_bg_p05": 30.033334732055664,
  "summary_bg_p95": 249.24667358398438,
