{
  "aor": 0.000593489932885906,
  "aqi": 0.014571532214765101,
  "bids_meta": {
    "AcquisitionMatrixPE": 188,
    "AcquisitionNumber": 1,
    "AcquisitionTime": "16:02:33.260000",
    "BandwidthPerPixelPhaseEncode": 19.46,
    "BaseResolution": 188,
    "CogAtlasID": "TODO",
    "ConversionSoftware": "dcm2niix",
    "ConversionSoftwareVersion": "v1.0.20180606 GCC4.8.5",
    "DelayTime": 1.2,
    "DerivedVendorReportedEchoSpacing": 0.000820013,
    "DeviceSerialNumber": "18930",
    "DwellTime": 1.9e-06,
    "EchoTime": 0.02,
    "EffectiveEchoSpacing": 0.000273338,
    "FlipAngle": 80,
    "ImageComments": "Unaliased_MB2_PE2",
    "ImageOrientationPatientDICOM": [
      0.999173,
      0.0356399,
      -0.0195491,
      -0.0249324,
      0.157486,
      -0.987206
    ],
    "ImageType": [
      "ORIGINAL",
      "PRIMARY",
      "M",
      "MB",
      "ND",
      "MOSAIC"
    ],
    "InPlanePhaseEncodingDirectionDICOM": "COL",
    "InstitutionAddress": "Oxfordlaan_55_Maastricht_753AAF_Limburg_NL_6229_EV",
    "InstitutionName": "Scannexus",
    "InstitutionalDepartmentName": "MRI_7T",
    "MRAcquisitionType": "2D",
    "MagneticFieldStrength": 6.98,
    "Manufacturer": "Siemens",
    "ManufacturersModelName": "Investigational_Device_7T",
    "Modality": "MR",
    "MultibandAccelerationFactor": 2,
    "ParallelReductionFactorInPlane": 3,
    "PartialFourier": 0.75,
    "PatientPosition": "HFS",
    "PercentPhaseFOV": 100,
    "PhaseEncodingDirection": "j",
    "PhaseEncodingSteps": 141,
    "PhaseResolution": 1,
    "PixelBandwidth": 1400,
    "ProcedureStepDescription": "FeDem_Faruk",
    "ProtocolName": "cmrr_mbep2d_bold_AP_run5",
    "PulseSequenceDetails": "%CustomerSeq%_cmrr_mbep2d_bold",
    "ReceiveCoilName": "32Ch_Head_7T",
    "ReconMatrixPE": 188,
    "RepetitionTime": 2.6,
    "SAR": 0.0633806,
    "ScanOptions": "PFP_FS",
    "ScanningSequence": "EP",
    "SequenceName": "epfid2d1_188",
    "SequenceVariant": "SK_SS",
    "SeriesDescription": "cmrr_mbep2d_bold_AP_run5",
    "SeriesNumber": 17,
    "ShimSetting": [
      54,
      -36,
      345,
      608,
      -240,
      461,
      258,
      248
    ],
    "SliceThickness": 1.1,
    "SliceTiming": [
      0,
      0.7325,
      0.0625,
      0.795,
      0.1225,
      0.855,
      0.185,
      0.9175,
      0.245,
      0.9775,
      0.305,
      1.04,
      0.3675,
      1.1,
      0.4275,
      1.1625,
      0.49,
      1.2225,
      0.55,
      1.2825,
      0.6125,
      1.345,
      0.6725,
      0,
      0.7325,
      0.0625,
      0.795,
      0.1225,
      0.855,
      0.185,
      0.9175,
      0.245,
      0.9775,
      0.305,
      1.04,
      0.3675,
      1.1,
      0.4275,
      1.1625,
      0.49,
      1.2225,
      0.55,
      1.2825,
      0.6125,
      1.345,
      0.6725
    ],
    "SoftwareVersions": "syngo_MR_B17",
    "SpacingBetweenSlices": 1.1,
    "StationName": "MRC18930",
    "TaskName": "auditory",
    "TotalReadoutTime": 0.0511141,
    "TxRefAmp": 195,
    "dataset": "ds001942",
    "dcmmeta_affine": [
      [
        -1.094839096069336,
        -0.027319511398673058,
        0.03531578183174133,
        101.3092041015625
      ],
      [
        -0.03905225917696953,
        0.17256446182727814,
        -1.0855656862258911,
        30.128551483154297
      ],
      [
        -0.02142079547047615,
        1.0817261934280396,
        0.1740688681602478,
        -117.70782470703125
      ],
      [
        0.0,
        0.0,
        0.0,
        1.0
      ]
    ],
    "dcmmeta_reorient_transform": [
      [
        0.0,
        -1.0,
        0.0,
        187.0
      ],
      [
        1.0,
        0.0,
        0.0,
        0.0
      ],
      [
        0.0,
        0.0,
        1.0,
        0.0
      ],
      [
        0.0,
        0.0,
        0.0,
        1.0
      ]
    ],
    "dcmmeta_shape": [
      188,
      188,
      46,
      150
    ],
    "dcmmeta_slice_dim": 2,
    "dcmmeta_version": 0.6,
    "global": {
      "const": {
        "AcquisitionMatrix": [
          188,
          0,
          0,
          188
        ],
        "AngioFlag": "N",
        "BitsAllocated": 16,
        "BitsStored": 12,
        "Columns": 1316,
        "EchoNumbers": 1,
        "EchoTime": 20.0,
        "EchoTrainLength": 1,
        "FlipAngle": 80.0,
        "HighBit": 11,
        "ImageOrientationPatient": [
          0.9991734731755,
          0.03563992392724,
          -0.0195490747831,
          -0.0249323689402,
          0.15748600827289,
          -0.9872064293638
        ],
        "ImagePositionPatient": [
          -698.28148280732,
          -181.74993727346,
          706.74991415591
        ],
        "ImageType": [
          "ORIGINAL",
          "PRIMARY",
          "M",
          "MB",
          "ND",
          "MOSAIC"
        ],
        "ImagedNucleus": "1H",
        "ImagingFrequency": 297.205675,
        "InPlanePhaseEncodingDirection": "COL",
        "LargestImagePixelValue": 4095,
        "MRAcquisitionType": "2D",
        "MagneticFieldStrength": 6.98,
        "Manufacturer": "SIEMENS",
        "ManufacturerModelName": "Investigational_Device_7T",
        "Modality": "MR",
        "NumberOfAverages": 1.0,
        "NumberOfPhaseEncodingSteps": 141,
        "PercentPhaseFieldOfView": 100.0,
        "PercentSampling": 100.0,
        "PerformedProcedureStepStartTime": "150445.390000",
        "PhotometricInterpretation": "MONOCHROME2",
        "PixelBandwidth": 1400.0,
        "PixelRepresentation": 0,
        "PixelSpacing": [
          1.0957447290421,
          1.0957447290421
        ],
        "ProtocolName": "cmrr_mbep2d_bold_AP_run5",
        "RepetitionTime": 2600.0,
        "Rows": 1316,
        "SAR": 0.06338060504038,
        "SamplesPerPixel": 1,
        "ScanOptions": [
          "PFP",
          "FS"
        ],
        "ScanningSequence": "EP",
        "SequenceName": "epfid2d1_188",
        "SequenceVariant": [
          "SK",
          "SS"
        ],
        "SeriesDescription": "cmrr_mbep2d_bold_AP_run5",
        "SeriesNumber": 17,
        "SeriesTime": "160242.203000",
        "SliceLocation": -45.107250061711,
        "SliceThickness": 1.1000000238419,
        "SmallestImagePixelValue": 0,
        "SoftwareVersions": "syngo MR B17",
        "SpacingBetweenSlices": 1.1000000170425,
        "SpecificCharacterSet": "ISO_IR 100",
        "StudyID": "1",
        "StudyTime": "150445.343000",
        "TransmitCoilName": "32Ch_Head_7T",
        "VariableFlipAngleFlag": "N",
        "WindowCenterWidthExplanation": "Algo1",
        "dBdt": 0.0
      },
      "slices": {}
    },
    "modality": "bold",
    "run_id": 5,
    "session_id": "SES02",
    "subject_id": "S09",
    "task_id": "auditory",
    "time": {
      "samples": {
        "AcquisitionNumber": [
          1,
          2,
          3,
          4,
          5,
          6,
          7,
          8,
          9,
          10,
          11,
          12,
          13,
          14,
          15,
          16,
          17,
          18,
          19,
          20,
          21,
          22,
          23,
          24,
          25,
          26,
          27,
          28,
          29,
          30,
          31,
          32,
          33,
          34,
          35,
          36,
          37,
          38,
          39,
          40,
          41,
          42,
          43,
          44,
          45,
          46,
          47,
          48,
          49,
          50,
          51,
          52,
          53,
          54,
          55,
          56,
          57,
          58,
          59,
          60,
          61,
          62,
          63,
          64,
          65,
          66,
          67,
          68,
          69,
          70,
          71,
          72,
          73,
          74,
          75,
          76,
          77,
          78,
          79,
          80,
          81,
          82,
          83,
          84,
          85,
          86,
          87,
          88,
          89,
          90,
          91,
          92,
          93,
          94,
          95,
          96,
          97,
          98,
          99,
          100,
          101,
          102,
          103,
          104,
          105,
          106,
          107,
          108,
          109,
          110,
          111,
          112,
          113,
          114,
          115,
          116,
          117,
          118,
          119,
          120,
          121,
          122,
          123,
          124,
          125,
          126,
          127,
          128,
          129,
          130,
          131,
          132,
          133,
          134,
          135,
          136,
          137,
          138,
          139,
          140,
          141,
          142,
          143,
          144,
          145,
          146,
          147,
          148,
          149,
          150
        ],
        "AcquisitionTime": [
          "160233.260000",
          "160235.870000",
          "160238.482500",
          "160241.092500",
          "160243.702500",
          "160246.312500",
          "160248.922500",
          "160251.532500",
          "160254.145000",
          "160256.755000",
          "160259.365000",
          "160301.975000",
          "160304.585000",
          "160307.195000",
          "160309.807500",
          "160312.417500",
          "160315.027500",
          "160317.637500",
          "160320.247500",
          "160322.860000",
          "160325.470000",
          "160328.080000",
          "160330.690000",
          "160333.300000",
          "160335.910000",
          "160338.522500",
          "160341.132500",
          "160343.742500",
          "160346.352500",
          "160348.962500",
          "160351.572500",
          "160354.185000",
          "160356.795000",
          "160359.405000",
          "160402.015000",
          "160404.625000",
          "160407.237500",
          "160409.847500",
          "160412.457500",
          "160415.067500",
          "160417.677500",
          "160420.287500",
          "160422.900000",
          "160425.510000",
          "160428.120000",
          "160430.730000",
          "160433.340000",
          "160435.950000",
          "160438.562500",
          "160441.172500",
          "160443.782500",
          "160446.392500",
          "160449.002500",
          "160451.615000",
          "160454.225000",
          "160456.835000",
          "160459.445000",
          "160502.055000",
          "160504.665000",
          "160507.277500",
          "160509.887500",
          "160512.497500",
          "160515.107500",
          "160517.717500",
          "160520.327500",
          "160522.940000",
          "160525.550000",
          "160528.160000",
          "160530.770000",
          "160533.380000",
          "160535.992500",
          "160538.602500",
          "160541.212500",
          "160543.822500",
          "160546.432500",
          "160549.042500",
          "160551.655000",
          "160554.265000",
          "160556.875000",
          "160559.485000",
          "160602.095000",
          "160604.705000",
          "160607.317500",
          "160609.927500",
          "160612.537500",
          "160615.147500",
          "160617.757500",
          "160620.370000",
          "160622.980000",
          "160625.590000",
          "160628.200000",
          "160630.810000",
          "160633.420000",
          "160636.032500",
          "160638.642500",
          "160641.252500",
          "160643.862500",
          "160646.472500",
          "160649.085000",
          "160651.695000",
          "160654.305000",
          "160656.915000",
          "160659.525000",
          "160702.135000",
          "160704.747500",
          "160707.357500",
          "160709.967500",
          "160712.577500",
          "160715.187500",
          "160717.797500",
          "160720.410000",
          "160723.020000",
          "160725.630000",
          "160728.240000",
          "160730.850000",
          "160733.462500",
          "160736.072500",
          "160738.682500",
          "160741.292500",
          "160743.902500",
          "160746.512500",
          "160749.125000",
          "160751.735000",
          "160754.345000",
          "160756.955000",
          "160759.565000",
          "160802.175000",
          "160804.787500",
          "160807.397500",
          "160810.007500",
          "160812.617500",
          "160815.227500",
          "160817.840000",
          "160820.450000",
          "160823.060000",
          "160825.670000",
          "160828.280000",
          "160830.890000",
          "160833.502500",
          "160836.112500",
          "160838.722500",
          "160841.332500",
          "160843.942500",
          "160846.552500",
          "160849.165000",
          "160851.775000",
          "160854.385000",
          "160856.995000",
          "160859.605000",
          "160902.217500"
        ],
        "ContentTime": [
          "160242.203000",
          "160242.203000",
          "160243.203000",
          "160245.203000",
          "160247.703000",
          "160250.703000",
          "160253.203000",
          "160255.703000",
          "160258.203000",
          "160300.703000",
          "160303.703000",
          "160306.203000",
          "160308.703000",
          "160311.203000",
          "160313.703000",
          "160316.703000",
          "160319.187000",
          "160321.687000",
          "160324.187000",
          "160326.703000",
          "160329.203000",
          "160332.203000",
          "160334.703000",
          "160337.187000",
          "160339.703000",
          "160342.703000",
          "160345.203000",
          "160347.703000",
          "160350.203000",
          "160352.703000",
          "160355.203000",
          "160358.203000",
          "160400.703000",
          "160403.203000",
          "160405.703000",
          "160408.703000",
          "160411.203000",
          "160413.703000",
          "160416.187000",
          "160418.687000",
          "160421.187000",
          "160424.203000",
          "160426.703000",
          "160429.203000",
          "160431.703000",
          "160434.203000",
          "160437.187000",
          "160439.703000",
          "160442.203000",
          "160444.703000",
          "160447.703000",
          "160450.203000",
          "160452.703000",
          "160455.203000",
          "160457.703000",
          "160500.203000",
          "160503.203000",
          "160505.703000",
          "160508.203000",
          "160510.703000",
          "160513.187000",
          "160516.187000",
          "160518.687000",
          "160521.203000",
          "160523.687000",
          "160526.203000",
          "160529.203000",
          "160531.703000",
          "160534.203000",
          "160536.703000",
          "160539.703000",
          "160542.203000",
          "160544.703000",
          "160547.187000",
          "160549.703000",
          "160552.203000",
          "160555.203000",
          "160557.703000",
          "160600.203000",
          "160602.703000",
          "160605.203000",
          "160608.203000",
          "160610.687000",
          "160613.187000",
          "160615.703000",
          "160618.203000",
          "160621.203000",
          "160623.703000",
          "160626.203000",
          "160628.703000",
          "160631.203000",
          "160634.203000",
          "160636.703000",
          "160639.203000",
          "160641.703000",
          "160644.203000",
          "160647.187000",
          "160649.703000",
          "160652.203000",
          "160654.703000",
          "160657.703000",
          "160700.203000",
          "160702.703000",
          "160705.187000",
          "160707.703000",
          "160710.187000",
          "160713.203000",
          "160715.703000",
          "160718.203000",
          "160720.703000",
          "160723.703000",
          "160726.203000",
          "160728.703000",
          "160731.203000",
          "160733.703000",
          "160736.703000",
          "160739.203000",
          "160741.703000",
          "160744.203000",
          "160746.703000",
          "160749.203000",
          "160752.203000",
          "160754.703000",
          "160757.187000",
          "160759.703000",
          "160802.203000",
          "160805.187000",
          "160807.687000",
          "160810.203000",
          "160812.703000",
          "160815.703000",
          "160818.203000",
          "160820.703000",
          "160823.203000",
          "160825.703000",
          "160828.203000",
          "160831.203000",
          "160833.703000",
          "160836.203000",
          "160838.703000",
          "160841.703000",
          "160844.203000",
          "160846.703000",
          "160849.203000",
          "160851.703000",
          "160854.203000",
          "160857.187000",
          "160859.703000",
          "160902.187000",
          "160909.578000"
        ],
        "InstanceCreationTime": [
          "160242.203000",
          "160242.203000",
          "160243.203000",
          "160245.203000",
          "160247.703000",
          "160250.703000",
          "160253.203000",
          "160255.703000",
          "160258.203000",
          "160300.703000",
          "160303.703000",
          "160306.203000",
          "160308.703000",
          "160311.203000",
          "160313.703000",
          "160316.703000",
          "160319.187000",
          "160321.687000",
          "160324.187000",
          "160326.703000",
          "160329.203000",
          "160332.203000",
          "160334.703000",
          "160337.187000",
          "160339.703000",
          "160342.703000",
          "160345.203000",
          "160347.703000",
          "160350.203000",
          "160352.703000",
          "160355.203000",
          "160358.203000",
          "160400.703000",
          "160403.203000",
          "160405.703000",
          "160408.703000",
          "160411.203000",
          "160413.703000",
          "160416.187000",
          "160418.687000",
          "160421.187000",
          "160424.203000",
          "160426.703000",
          "160429.203000",
          "160431.703000",
          "160434.203000",
          "160437.187000",
          "160439.703000",
          "160442.203000",
          "160444.703000",
          "160447.703000",
          "160450.203000",
          "160452.703000",
          "160455.203000",
          "160457.703000",
          "160500.203000",
          "160503.203000",
          "160505.703000",
          "160508.203000",
          "160510.703000",
          "160513.187000",
          "160516.187000",
          "160518.687000",
          "160521.203000",
          "160523.687000",
          "160526.203000",
          "160529.203000",
          "160531.703000",
          "160534.203000",
          "160536.703000",
          "160539.703000",
          "160542.203000",
          "160544.703000",
          "160547.187000",
          "160549.703000",
          "160552.203000",
          "160555.203000",
          "160557.703000",
          "160600.203000",
          "160602.703000",
          "160605.203000",
          "160608.203000",
          "160610.687000",
          "160613.187000",
          "160615.703000",
          "160618.203000",
          "160621.203000",
          "160623.703000",
          "160626.203000",
          "160628.703000",
          "160631.203000",
          "160634.203000",
          "160636.703000",
          "160639.203000",
          "160641.703000",
          "160644.203000",
          "160647.187000",
          "160649.703000",
          "160652.203000",
          "160654.703000",
          "160657.703000",
          "160700.203000",
          "160702.703000",
          "160705.187000",
          "160707.703000",
          "160710.187000",
          "160713.203000",
          "160715.703000",
          "160718.203000",
          "160720.703000",
          "160723.703000",
          "160726.203000",
          "160728.703000",
          "160731.203000",
          "160733.703000",
          "160736.703000",
          "160739.203000",
          "160741.703000",
          "160744.203000",
          "160746.703000",
          "160749.203000",
          "160752.203000",
          "160754.703000",
          "160757.187000",
          "160759.703000",
          "160802.203000",
          "160805.187000",
          "160807.687000",
          "160810.203000",
          "160812.703000",
          "160815.703000",
          "160818.203000",
          "160820.703000",
          "160823.203000",
          "160825.703000",
          "160828.203000",
          "160831.203000",
          "160833.703000",
          "160836.203000",
          "160838.703000",
          "160841.703000",
          "160844.203000",
          "160846.703000",
          "160849.203000",
          "160851.703000",
          "160854.203000",
          "160857.187000",
          "160859.703000",
          "160902.187000",
          "160909.578000"
        ],
        "InstanceNumber": [
          1,
          2,
          3,
          4,
          5,
          6,
          7,
          8,
          9,
          10,
          11,
          12,
          13,
          14,
          15,
          16,
          17,
          18,
          19,
          20,
          21,
          22,
          23,
          24,
          25,
          26,
          27,
          28,
          29,
          30,
          31,
          32,
          33,
          34,
          35,
          36,
          37,
          38,
          39,
          40,
          41,
          42,
          43,
          44,
          45,
          46,
          47,
          48,
          49,
          50,
          51,
          52,
          53,
          54,
          55,
          56,
          57,
          58,
          59,
          60,
          61,
          62,
          63,
          64,
          65,
          66,
          67,
          68,
          69,
          70,
          71,
          72,
          73,
          74,
          75,
          76,
          77,
          78,
          79,
          80,
          81,
          82,
          83,
          84,
          85,
          86,
          87,
          88,
          89,
          90,
          91,
          92,
          93,
          94,
          95,
          96,
          97,
          98,
          99,
          100,
          101,
          102,
          103,
          104,
          105,
          106,
          107,
          108,
          109,
          110,
          111,
          112,
          113,
          114,
          115,
          116,
          117,
          118,
          119,
          120,
          121,
          122,
          123,
          124,
          125,
          126,
          127,
          128,
          129,
          130,
          131,
          132,
          133,
          134,
          135,
          136,
          137,
          138,
          139,
          140,
          141,
          142,
          143,
          144,
          145,
          146,
          147,
          148,
          149,
          150
        ],
        "WindowCenter": [
          864.0,
          863.0,
          863.0,
          862.0,
          860.0,
          860.0,
          860.0,
          860.0,
          860.0,
          860.0,
          859.0,
          859.0,
          859.0,
          860.0,
          860.0,
          859.0,
          861.0,
          862.0,
          860.0,
          860.0,
          861.0,
          861.0,
          861.0,
          861.0,
          861.0,
          861.0,
          861.0,
          862.0,
          861.0,
          859.0,
          859.0,
          859.0,
          859.0,
          860.0,
          860.0,
          860.0,
          860.0,
          861.0,
          861.0,
          860.0,
          861.0,
          861.0,
          859.0,
          859.0,
          859.0,
          860.0,
          859.0,
          859.0,
          860.0,
          861.0,
          860.0,
          859.0,
          861.0,
          862.0,
          860.0,
          859.0,
          861.0,
          860.0,
          860.0,
          860.0,
          860.0,
          860.0,
          860.0,
          859.0,
          858.0,
          860.0,
          861.0,
          860.0,
          860.0,
          860.0,
          860.0,
          859.0,
          859.0,
          862.0,
          860.0,
          859.0,
          860.0,
          862.0,
          862.0,
          861.0,
          861.0,
          861.0,
          861.0,
          861.0,
          861.0,
          860.0,
          859.0,
          859.0,
          860.0,
          859.0,
          860.0,
          862.0,
          862.0,
          860.0,
          861.0,
          862.0,
          861.0,
          860.0,
          860.0,
          861.0,
          861.0,
          860.0,
          861.0,
          863.0,
          862.0,
          863.0,
          861.0,
          860.0,
          860.0,
          861.0,
          862.0,
          861.0,
          861.0,
          861.0,
          861.0,
          861.0,
          862.0,
          862.0,
          862.0,
          862.0,
          862.0,
          863.0,
          863.0,
          862.0,
          861.0,
          863.0,
          862.0,
          860.0,
          860.0,
          862.0,
          861.0,
          860.0,
          861.0,
          862.0,
          862.0,
          861.0,
          864.0,
          863.0,
          861.0,
          861.0,
          861.0,
          861.0,
          861.0,
          861.0,
          861.0,
          861.0,
          861.0,
          861.0,
          861.0,
          860.0
        ],
        "WindowWidth": [
          1986.0,
          1980.0,
          1980.0,
          1976.0,
          1968.0,
          1968.0,
          1969.0,
          1969.0,
          1967.0,
          1969.0,
          1965.0,
          1966.0,
          1966.0,
          1970.0,
          1969.0,
          1967.0,
          1974.0,
          1975.0,
          1969.0,
          1970.0,
          1973.0,
          1974.0,
          1973.0,
          1972.0,
          1973.0,
          1973.0,
          1973.0,
          1976.0,
          1971.0,
          1967.0,
          1966.0,
          1967.0,
          1968.0,
          1971.0,
          1971.0,
          1971.0,
          1971.0,
          1974.0,
          1973.0,
          1970.0,
          1974.0,
          1973.0,
          1968.0,
          1968.0,
          1968.0,
          1969.0,
          1968.0,
          1968.0,
          1970.0,
          1975.0,
          1970.0,
          1967.0,
          1975.0,
          1977.0,
          1970.0,
          1965.0,
          1973.0,
          1971.0,
          1970.0,
          1972.0,
          1969.0,
          1969.0,
          1968.0,
          1966.0,
          1965.0,
          1971.0,
          1972.0,
          1971.0,
          1969.0,
          1970.0,
          1968.0,
          1966.0,
          1968.0,
          1976.0,
          1971.0,
          1967.0,
          1970.0,
          1978.0,
          1977.0,
          1973.0,
          1974.0,
          1974.0,
          1975.0,
          1974.0,
          1972.0,
          1969.0,
          1967.0,
          1967.0,
          1968.0,
          1966.0,
          1968.0,
          1976.0,
          1975.0,
          1971.0,
          1973.0,
          1975.0,
          1974.0,
          1968.0,
          1969.0,
          1974.0,
          1972.0,
          1970.0,
          1974.0,
          1979.0,
          1978.0,
          1981.0,
          1974.0,
          1970.0,
          1970.0,
          1975.0,
          1978.0,
          1974.0,
          1972.0,
          1973.0,
          1972.0,
          1972.0,
          1975.0,
          1976.0,
          1976.0,
          1976.0,
          1979.0,
          1979.0,
          1980.0,
          1977.0,
          1974.0,
          1979.0,
          1975.0,
          1969.0,
          1969.0,
          1977.0,
          1973.0,
          1970.0,
          1972.0,
          1976.0,
          1975.0,
          1974.0,
          1982.0,
          1978.0,
          1972.0,
          1974.0,
          1973.0,
          1973.0,
          1974.0,
          1972.0,
          1973.0,
          1973.0,
          1972.0,
          1973.0,
          1972.0,
          1969.0
        ]
      },
      "slices": {}
    }
  },
  "dummy_trs": 1,
  "dvars_nstd": 70.50206503972969,
  "dvars_std": 1.0265918127027027,
  "dvars_vstd": 1.0031160974999997,
  "efc": 0.5544538202397782,
  "fber": 375.26104736328125,
  "fd_mean": 0.04637770712001375,
  "fd_num": 1,
  "fd_perc": 0.6711409395973155,
  "fwhm_avg": 2.82018636540746,
  "fwhm_x": 2.727350559662429,
  "fwhm_y": 2.662454057662216,
  "fwhm_z": 3.0707544788977343,
  "gcor": 0.00213504,
  "gsr_x": -0.012770870700478554,
  "gsr_y": 0.06233937293291092,
  "provenance": {
    "md5sum": "1806e56947990e3cc0e13b17bffc9e4f",
    "settings": {
      "fd_thres": 0.2,
      "testing": false
    },
    "software": "mriqc",
    "version": "22.0.6",
    "webapi_port": null,
    "webapi_url": "https://mriqc.nimh.nih.gov/api/v1"
  },
  "size_t": 149,
  "size_x": 188,
  "size_y": 188,
  "size_z": 46,
  "snr": 2.08849093569527,
  "spacing_tr": 2.5999999046325684,
  "spacing_x": 1.0957447290420532,
  "spacing_y": 1.0957447290420532,
  "spacing_z": 1.100000023841858,
  "summary_bg_k": 49.75454748851421,
  "summary_bg_mad": 23.293772096452845,
  "summary_bg_mean": 82.15509796142578,
  "summary_bg_median": 47.067115783691406,
  "summary_bg_n": 1065858.0,
  "summary_bg_p05": 29.751678466796875,
