{
  "aor": 0.001111744966442953,
  "aqi": 0.013611857046979868,
  "bids_meta": {
    "AcquisitionMatrixPE": 188,
    "AcquisitionNumber": 1,
    "AcquisitionTime": "15:39:47.282500",
    "BandwidthPerPixelPhaseEncode": 19.46,
    "BaseResolution": 188,
    "ConversionSoftware": "dcm2niix",
    "ConversionSoftwareVersion": "v1.0.20180606 GCC4.8.5",
    "DelayTime": 1.2,
    "DerivedVendorReportedEchoSpacing": 0.000820013,
    "DeviceSerialNumber": "18930",
    "DwellTime": 1.9e-06,
    "EchoTime": 0.02,
    "EffectiveEchoSpacing": 0.000273338,
    "FlipAngle": 80,
    "ImageComments": "Unaliased_MB2_PE2",
    "ImageOrientationPatientDICOM": [
      0.999173,
      0.0356399,
      -0.0195491,
      -0.0249324,
      0.157486,
      -0.987206
    ],
    "ImageType": [
      "ORIGINAL",
      "PRIMARY",
      "M",
      "MB",
      "ND",
      "MOSAIC"
    ],
    "InPlanePhaseEncodingDirectionDICOM": "COL",
    "InstitutionAddress": "Oxfordlaan_55_Maastricht_753AAF_Limburg_NL_6229_EV",
    "InstitutionName": "Scannexus",
    "InstitutionalDepartmentName": "MRI_7T",
    "MRAcquisitionType": "2D",
    "MagneticFieldStrength": 6.98,
    "Manufacturer": "Siemens",
    "ManufacturersModelName": "Investigational_Device_7T",
    "Modality": "MR",
    "MultibandAccelerationFactor": 2,
    "ParallelReductionFactorInPlane": 3,
    "PartialFourier": 0.75,
    "PatientPosition": "HFS",
    "PercentPhaseFOV": 100,
    "PhaseEncodingDirection": "j",
    "PhaseEncodingSteps": 141,
    "PhaseResolution": 1,
    "PixelBandwidth": 1400,
    "ProcedureStepDescription": "FeDem_Faruk",
    "ProtocolName": "cmrr_mbep2d_bold_AP_run2",
    "PulseSequenceDetails": "%CustomerSeq%_cmrr_mbep2d_bold",
    "ReceiveCoilName": "32Ch_Head_7T",
    "ReconMatrixPE": 188,
    "RepetitionTime": 2.6,
    "SAR": 0.0631614,
    "ScanOptions": "PFP_FS",
    "ScanningSequence": "EP",
    "SequenceName": "epfid2d1_188",
    "SequenceVariant": "SK_SS",
    "SeriesDescription": "cmrr_mbep2d_bold_AP_run2",
    "SeriesNumber": 14,
    "ShimSetting": [
      54,
      -36,
      345,
      608,
      -240,
      461,
      258,
      248
    ],
    "SliceThickness": 1.1,
    "SliceTiming": [
      0,
      0.7325,
      0.06,
      0.7925,
      0.12,
      0.855,
      0.1825,
      0.915,
      0.2425,
      0.9775,
      0.305,
      1.0375,
      0.365,
      1.0975,
      0.4275,
      1.16,
      0.4875,
      1.22,
      0.55,
      1.2825,
      0.61,
      1.3425,
      0.67,
      0,
      0.7325,
      0.06,
      0.7925,
      0.12,
      0.855,
      0.1825,
      0.915,
      0.2425,
      0.9775,
      0.305,
      1.0375,
      0.365,
      1.0975,
      0.4275,
      1.16,
      0.4875,
      1.22,
      0.55,
      1.2825,
      0.61,
      1.3425,
      0.67
    ],
    "SoftwareVersions": "syngo_MR_B17",
    "SpacingBetweenSlices": 1.1,
    "StationName": "MRC18930",
    "TaskName": "auditory",
    "TotalReadoutTime": 0.0511141,
    "TxRefAmp": 195,
    "dataset": "ds001942",
    "dcmmeta_affine": [
      [
        -1.094839096069336,
        -0.027319511398673058,
        0.03531578183174133,
        101.3092041015625
      ],
      [
        -0.03905225917696953,
        0.17256446182727814,
        -1.0855656862258911,
        30.128551483154297
      ],
      [
        -0.02142079547047615,
        1.0817261934280396,
        0.1740688681602478,
        -117.70782470703125
      ],
      [
        0.0,
        0.0,
        0.0,
        1.0
      ]
    ],
    "dcmmeta_reorient_transform": [
      [
        0.0,
        -1.0,
        0.0,
        187.0
      ],
      [
        1.0,
        0.0,
        0.0,
        0.0
      ],
      [
        0.0,
        0.0,
        1.0,
        0.0
      ],
      [
        0.0,
        0.0,
        0.0,
        1.0
      ]
    ],
    "dcmmeta_shape": [
      188,
      188,
      46,
      150
    ],
    "dcmmeta_slice_dim": 2,
    "dcmmeta_version": 0.6,
    "global": {
      "const": {
        "AcquisitionMatrix": [
          188,
          0,
          0,
          188
        ],
        "AngioFlag": "N",
        "BitsAllocated": 16,
        "BitsStored": 12,
        "Columns": 1316,
        "EchoNumbers": 1,
        "EchoTime": 20.0,
        "EchoTrainLength": 1,
        "FlipAngle": 80.0,
        "HighBit": 11,
        "ImageOrientationPatient": [
          0.9991734731755,
          0.03563992392724,
          -0.0195490747831,
          -0.0249323689402,
          0.15748600827289,
          -0.9872064293638
        ],
        "ImagePositionPatient": [
          -698.28148280732,
          -181.74993727346,
          706.74991415591
        ],
        "ImageType": [
          "ORIGINAL",
          "PRIMARY",
          "M",
          "MB",
          "ND",
          "MOSAIC"
        ],
        "ImagedNucleus": "1H",
        "ImagingFrequency": 297.205668,
        "InPlanePhaseEncodingDirection": "COL",
        "LargestImagePixelValue": 4095,
        "MRAcquisitionType": "2D",
        "MagneticFieldStrength": 6.98,
        "Manufacturer": "SIEMENS",
        "ManufacturerModelName": "Investigational_Device_7T",
        "Modality": "MR",
        "NumberOfAverages": 1.0,
        "NumberOfPhaseEncodingSteps": 141,
        "PercentPhaseFieldOfView": 100.0,
        "PercentSampling": 100.0,
        "PerformedProcedureStepStartTime": "150445.390000",
        "PhotometricInterpretation": "MONOCHROME2",
        "PixelBandwidth": 1400.0,
        "PixelRepresentation": 0,
        "PixelSpacing": [
          1.0957447290421,
          1.0957447290421
        ],
        "ProtocolName": "cmrr_mbep2d_bold_AP_run2",
        "RepetitionTime": 2600.0,
        "Rows": 1316,
        "SAR": 0.06316138848167,
        "SamplesPerPixel": 1,
        "ScanOptions": [
          "PFP",
          "FS"
        ],
        "ScanningSequence": "EP",
        "SequenceName": "epfid2d1_188",
        "SequenceVariant": [
          "SK",
          "SS"
        ],
        "SeriesDescription": "cmrr_mbep2d_bold_AP_run2",
        "SeriesNumber": 14,
        "SeriesTime": "153956.484000",
        "SliceLocation": -45.107250061711,
        "SliceThickness": 1.1000000238419,
        "SmallestImagePixelValue": 0,
        "SoftwareVersions": "syngo MR B17",
        "SpacingBetweenSlices": 1.1000000170425,
        "SpecificCharacterSet": "ISO_IR 100",
        "StudyID": "1",
        "StudyTime": "150445.343000",
        "TransmitCoilName": "32Ch_Head_7T",
        "VariableFlipAngleFlag": "N",
        "WindowCenterWidthExplanation": "Algo1",
        "dBdt": 0.0
      },
      "slices": {}
    },
    "modality": "bold",
    "run_id": 2,
    "session_id": "SES02",
    "subject_id": "S09",
    "task_id": "auditory",
    "time": {
      "samples": {
        "AcquisitionNumber": [
          1,
          2,
          3,
          4,
          5,
          6,
          7,
          8,
          9,
          10,
          11,
          12,
          13,
          14,
          15,
          16,
          17,
          18,
          19,
          20,
          21,
          22,
          23,
          24,
          25,
          26,
          27,
          28,
          29,
          30,
          31,
          32,
          33,
          34,
          35,
          36,
          37,
          38,
          39,
          40,
          41,
          42,
          43,
          44,
          45,
          46,
          47,
          48,
          49,
          50,
          51,
          52,
          53,
          54,
          55,
          56,
          57,
          58,
          59,
          60,
          61,
          62,
          63,
          64,
          65,
          66,
          67,
          68,
          69,
          70,
          71,
          72,
          73,
          74,
          75,
          76,
          77,
          78,
          79,
          80,
          81,
          82,
          83,
          84,
          85,
          86,
          87,
          88,
          89,
          90,
          91,
          92,
          93,
          94,
          95,
          96,
          97,
          98,
          99,
          100,
          101,
          102,
          103,
          104,
          105,
          106,
          107,
          108,
          109,
          110,
          111,
          112,
          113,
          114,
          115,
          116,
          117,
          118,
          119,
          120,
          121,
          122,
          123,
          124,
          125,
          126,
          127,
          128,
          129,
          130,
          131,
          132,
          133,
          134,
          135,
          136,
          137,
          138,
          139,
          140,
          141,
          142,
          143,
          144,
          145,
          146,
          147,
          148,
          149,
          150
        ],
        "AcquisitionTime": [
          "153947.282500",
          "153949.892500",
          "153952.502500",
          "153955.112500",
          "153957.722500",
          "154000.332500",
          "154002.945000",
          "154005.555000",
          "154008.165000",
          "154010.775000",
          "154013.385000",
          "154015.995000",
          "154018.607500",
          "154021.217500",
          "154023.827500",
          "154026.437500",
          "154029.047500",
          "154031.660000",
          "154034.270000",
          "154036.880000",
          "154039.490000",
          "154042.100000",
          "154044.710000",
          "154047.322500",
          "154049.932500",
          "154052.542500",
          "154055.152500",
          "154057.762500",
          "154100.372500",
          "154102.985000",
          "154105.595000",
          "154108.205000",
          "154110.815000",
          "154113.425000",
          "154116.037500",
          "154118.647500",
          "154121.257500",
          "154123.867500",
          "154126.477500",
          "154129.087500",
          "154131.700000",
          "154134.310000",
          "154136.920000",
          "154139.530000",
          "154142.140000",
          "154144.750000",
          "154147.362500",
          "154149.972500",
          "154152.582500",
          "154155.192500",
          "154157.802500",
          "154200.415000",
          "154203.025000",
          "154205.635000",
          "154208.245000",
          "154210.855000",
          "154213.465000",
          "154216.077500",
          "154218.687500",
          "154221.297500",
          "154223.907500",
          "154226.517500",
          "154229.127500",
          "154231.740000",
          "154234.350000",
          "154236.960000",
          "154239.570000",
          "154242.180000",
          "154244.792500",
          "154247.402500",
          "154250.012500",
          "154252.622500",
          "154255.232500",
          "154257.842500",
          "154300.455000",
          "154303.065000",
          "154305.675000",
          "154308.285000",
          "154310.895000",
          "154313.505000",
          "154316.117500",
          "154318.727500",
          "154321.337500",
          "154323.947500",
          "154326.557500",
          "154329.170000",
          "154331.780000",
          "154334.390000",
          "154337.000000",
          "154339.610000",
          "154342.220000",
          "154344.832500",
          "154347.442500",
          "154350.052500",
          "154352.662500",
          "154355.272500",
          "154357.882500",
          "154400.495000",
          "154403.105000",
          "154405.715000",
          "154408.325000",
          "154410.935000",
          "154413.547500",
          "154416.157500",
          "154418.767500",
          "154421.377500",
          "154423.987500",
          "154426.597500",
          "154429.210000",
          "154431.820000",
          "154434.430000",
          "154437.040000",
          "154439.650000",
          "154442.260000",
          "154444.872500",
          "154447.482500",
          "154450.092500",
          "154452.702500",
          "154455.312500",
          "154457.925000",
          "154500.535000",
          "154503.145000",
          "154505.755000",
          "154508.365000",
          "154510.975000",
          "154513.587500",
          "154516.197500",
          "154518.807500",
          "154521.417500",
          "154524.027500",
          "154526.637500",
          "154529.250000",
          "154531.860000",
          "154534.470000",
          "154537.080000",
          "154539.690000",
          "154542.302500",
          "154544.912500",
          "154547.522500",
          "154550.132500",
          "154552.742500",
          "154555.352500",
          "154557.965000",
          "154600.575000",
          "154603.185000",
          "154605.795000",
          "154608.405000",
          "154611.017500",
          "154613.627500",
          "154616.237500"
        ],
        "ContentTime": [
          "153956.484000",
          "153956.484000",
          "153957.468000",
          "153959.468000",
          "154001.984000",
          "154004.484000",
          "154007.484000",
          "154009.984000",
          "154012.484000",
          "154014.984000",
          "154017.484000",
          "154020.484000",
          "154022.984000",
          "154025.484000",
          "154027.984000",
          "154030.484000",
          "154033.484000",
          "154035.984000",
          "154038.484000",
          "154040.984000",
          "154043.984000",
          "154046.484000",
          "154048.984000",
          "154051.468000",
          "154053.968000",
          "154056.468000",
          "154059.484000",
          "154101.984000",
          "154104.484000",
          "154106.984000",
          "154109.984000",
          "154112.484000",
          "154114.984000",
          "154117.484000",
          "154119.984000",
          "154122.484000",
          "154125.484000",
          "154127.984000",
          "154130.484000",
          "154132.984000",
          "154135.468000",
          "154138.484000",
          "154140.984000",
          "154143.484000",
          "154145.984000",
          "154148.468000",
          "154151.468000",
          "154153.984000",
          "154156.484000",
          "154158.984000",
          "154201.984000",
          "154204.484000",
          "154206.984000",
          "154209.484000",
          "154211.984000",
          "154214.984000",
          "154217.484000",
          "154219.984000",
          "154222.484000",
          "154224.984000",
          "154227.484000",
          "154230.468000",
          "154232.984000",
          "154235.484000",
          "154237.984000",
          "154240.484000",
          "154243.484000",
          "154245.968000",
          "154248.468000",
          "154250.968000",
          "154253.484000",
          "154256.484000",
          "154258.984000",
          "154301.484000",
          "154303.984000",
          "154306.984000",
          "154309.484000",
          "154311.984000",
          "154314.484000",
          "154316.984000",
          "154319.484000",
          "154322.484000",
          "154324.984000",
          "154327.484000",
          "154329.984000",
          "154332.484000",
          "154335.484000",
          "154337.984000",
          "154340.484000",
          "154342.968000",
          "154345.468000",
          "154348.484000",
          "154350.984000",
          "154353.484000",
          "154355.984000",
          "154358.484000",
          "154401.484000",
          "154403.984000",
          "154406.484000",
          "154408.984000",
          "154411.484000",
          "154414.484000",
          "154416.984000",
          "154419.484000",
          "154421.984000",
          "154424.484000",
          "154427.484000",
          "154429.984000",
          "154432.484000",
          "154434.984000",
          "154437.484000",
          "154440.484000",
          "154442.968000",
          "154445.484000",
          "154447.968000",
          "154450.984000",
          "154453.484000",
          "154455.984000",
          "154458.484000",
          "154500.984000",
          "154503.984000",
          "154506.484000",
          "154508.984000",
          "154511.484000",
          "154513.984000",
          "154516.984000",
          "154519.484000",
          "154521.984000",
          "154524.484000",
          "154526.984000",
          "154529.468000",
          "154532.468000",
          "154534.968000",
          "154537.468000",
          "154539.968000",
          "154542.484000",
          "154545.484000",
          "154547.984000",
          "154550.484000",
          "154552.984000",
          "154555.484000",
          "154558.484000",
          "154600.984000",
          "154603.484000",
          "154605.984000",
          "154608.468000",
          "154611.484000",
          "154613.984000",
          "154616.484000",
          "154623.843000"
        ],
        "InstanceCreationTime": [
          "153956.484000",
          "153956.484000",
          "153957.468000",
          "153959.468000",
          "154001.984000",
          "154004.484000",
          "154007.484000",
          "154009.984000",
          "154012.484000",
          "154014.984000",
          "154017.484000",
          "154020.484000",
          "154022.984000",
          "154025.484000",
          "154027.984000",
          "154030.484000",
          "154033.484000",
          "154035.984000",
          "154038.484000",
          "154040.984000",
          "154043.984000",
          "154046.484000",
          "154048.984000",
          "154051.468000",
          "154053.968000",
          "154056.468000",
          "154059.484000",
          "154101.984000",
          "154104.484000",
          "154106.984000",
          "154109.984000",
          "154112.484000",
          "154114.984000",
          "154117.484000",
          "154119.984000",
          "154122.484000",
          "154125.484000",
          "154127.984000",
          "154130.484000",
          "154132.984000",
          "154135.468000",
          "154138.484000",
          "154140.984000",
          "154143.484000",
          "154145.984000",
          "154148.468000",
          "154151.468000",
          "154153.984000",
          "154156.484000",
          "154158.984000",
          "154201.984000",
          "154204.484000",
          "154206.984000",
          "154209.484000",
          "154211.984000",
          "154214.984000",
          "154217.484000",
          "154219.984000",
          "154222.484000",
          "154224.984000",
          "154227.484000",
          "154230.468000",
          "154232.984000",
          "154235.484000",
          "154237.984000",
          "154240.484000",
          "154243.484000",
          "154245.968000",
          "154248.468000",
          "154250.968000",
          "154253.484000",
          "154256.484000",
          "154258.984000",
          "154301.484000",
          "154303.984000",
          "154306.984000",
          "154309.484000",
          "154311.984000",
          "154314.484000",
          "154316.984000",
          "154319.484000",
          "154322.484000",
          "154324.984000",
          "154327.484000",
          "154329.984000",
          "154332.484000",
          "154335.484000",
          "154337.984000",
          "154340.484000",
          "154342.968000",
          "154345.468000",
          "154348.484000",
          "154350.984000",
          "154353.484000",
          "154355.984000",
          "154358.484000",
          "154401.484000",
          "154403.984000",
          "154406.484000",
          "154408.984000",
          "154411.484000",
          "154414.484000",
          "154416.984000",
          "154419.484000",
          "154421.984000",
          "154424.484000",
          "154427.484000",
          "154429.984000",
          "154432.484000",
          "154434.984000",
          "154437.484000",
          "154440.484000",
          "154442.968000",
          "154445.484000",
          "154447.968000",
          "154450.984000",
          "154453.484000",
          "154455.984000",
          "154458.484000",
          "154500.984000",
          "154503.984000",
          "154506.484000",
          "154508.984000",
          "154511.484000",
          "154513.984000",
          "154516.984000",
          "154519.484000",
          "154521.984000",
          "154524.484000",
          "154526.984000",
          "154529.468000",
          "154532.468000",
          "154534.968000",
          "154537.468000",
          "154539.968000",
          "154542.484000",
          "154545.484000",
          "154547.984000",
          "154550.484000",
          "154552.984000",
          "154555.484000",
          "154558.484000",
          "154600.984000",
          "154603.484000",
          "154605.984000",
          "154608.468000",
          "154611.484000",
          "154613.984000",
          "154616.484000",
          "154623.843000"
        ],
        "InstanceNumber": [
          1,
          2,
          3,
          4,
          5,
          6,
          7,
          8,
          9,
          10,
          11,
          12,
          13,
          14,
          15,
          16,
          17,
          18,
          19,
          20,
          21,
          22,
          23,
          24,
          25,
          26,
          27,
          28,
          29,
          30,
          31,
          32,
          33,
          34,
          35,
          36,
          37,
          38,
          39,
          40,
          41,
          42,
          43,
          44,
          45,
          46,
          47,
          48,
          49,
          50,
          51,
          52,
          53,
          54,
          55,
          56,
          57,
          58,
          59,
          60,
          61,
          62,
          63,
          64,
          65,
          66,
          67,
          68,
          69,
          70,
          71,
          72,
          73,
          74,
          75,
          76,
          77,
          78,
          79,
          80,
          81,
          82,
          83,
          84,
          85,
          86,
          87,
          88,
          89,
          90,
          91,
          92,
          93,
          94,
          95,
          96,
          97,
          98,
          99,
          100,
          101,
          102,
          103,
          104,
          105,
          106,
          107,
          108,
          109,
          110,
          111,
          112,
          113,
          114,
          115,
          116,
          117,
          118,
          119,
          120,
          121,
          122,
          123,
          124,
          125,
          126,
          127,
          128,
          129,
          130,
          131,
          132,
          133,
          134,
          135,
          136,
          137,
          138,
          139,
          140,
          141,
          142,
          143,
          144,
          145,
          146,
          147,
          148,
          149,
          150
        ],
        "WindowCenter": [
          866.0,
          862.0,
          861.0,
          862.0,
          861.0,
          861.0,
          862.0,
          862.0,
          861.0,
          861.0,
          862.0,
          862.0,
          862.0,
          861.0,
          861.0,
          861.0,
          863.0,
          863.0,
          862.0,
          861.0,
          862.0,
          861.0,
          862.0,
          863.0,
          862.0,
          863.0,
          863.0,
          863.0,
          863.0,
          862.0,
          862.0,
          862.0,
          862.0,
          862.0,
          862.0,
          862.0,
          862.0,
          862.0,
          862.0,
          862.0,
          862.0,
          862.0,
          862.0,
          861.0,
          863.0,
          862.0,
          861.0,
          861.0,
          861.0,
          862.0,
          863.0,
          862.0,
          862.0,
          863.0,
          863.0,
          863.0,
          863.0,
          864.0,
          863.0,
          862.0,
          863.0,
          864.0,
          864.0,
          863.0,
          864.0,
          863.0,
          862.0,
          862.0,
          863.0,
          863.0,
          862.0,
          862.0,
          862.0,
          863.0,
          863.0,
          863.0,
          864.0,
          864.0,
          863.0,
          862.0,
          861.0,
          861.0,
          861.0,
          862.0,
          863.0,
          861.0,
          861.0,
          862.0,
          862.0,
          862.0,
          863.0,
          863.0,
          863.0,
          863.0,
          863.0,
          863.0,
          863.0,
          865.0,
          864.0,
          863.0,
          862.0,
          863.0,
          863.0,
          862.0,
          862.0,
          862.0,
          863.0,
          864.0,
          863.0,
          864.0,
          864.0,
          864.0,
          863.0,
          863.0,
          864.0,
          863.0,
          862.0,
          864.0,
          865.0,
          864.0,
          863.0,
          863.0,
          863.0,
          863.0,
          862.0,
          862.0,
          863.0,
          862.0,
          862.0,
          863.0,
          864.0,
          863.0,
          861.0,
          862.0,
          863.0,
          863.0,
          862.0,
          862.0,
          862.0,
          863.0,
          864.0,
          862.0,
          860.0,
          862.0,
          863.0,
          862.0,
          861.0,
          861.0,
          861.0,
          861.0
        ],
        "WindowWidth": [
          1989.0,
          1977.0,
          1974.0,
          1975.0,
          1972.0,
          1975.0,
          1977.0,
          1977.0,
          1974.0,
          1973.0,
          1976.0,
          1975.0,
          1975.0,
          1974.0,
          1974.0,
          1975.0,
          1980.0,
          1982.0,
          1976.0,
          1974.0,
          1975.0,
          1973.0,
          1978.0,
          1980.0,
          1977.0,
          1979.0,
          1982.0,
          1979.0,
          1979.0,
          1978.0,
          1977.0,
          1975.0,
          1975.0,
          1976.0,
          1978.0,
          1976.0,
          1975.0,
          1976.0,
          1977.0,
          1976.0,
          1976.0,
          1977.0,
          1975.0,
          1975.0,
          1980.0,
          1975.0,
          1973.0,
          1973.0,
          1973.0,
          1975.0,
          1977.0,
          1976.0,
          1975.0,
          1981.0,
          1981.0,
          1979.0,
          1979.0,
          1981.0,
          1981.0,
          1977.0,
          1979.0,
          1985.0,
          1984.0,
          1980.0,
          1983.0,
          1981.0,
          1977.0,
          1974.0,
          1979.0,
          1980.0,
          1977.0,
          1977.0,
          1977.0,
          1979.0,
          1979.0,
          1979.0,
          1984.0,
          1985.0,
          1980.0,
          1977.0,
          1973.0,
          1972.0,
          1974.0,
          1978.0,
          1978.0,
          1974.0,
          1974.0,
          1976.0,
          1975.0,
          1978.0,
          1981.0,
          1981.0,
          1981.0,
          1979.0,
          1980.0,
          1979.0,
          1981.0,
          1986.0,
          1985.0,
          1977.0,
          1976.0,
          1978.0,
          1980.0,
          1977.0,
          1975.0,
          1977.0,
          1981.0,
          1982.0,
          1981.0,
          1983.0,
          1983.0,
          1983.0,
          1980.0,
          1981.0,
          1982.0,
          1980.0,
          1978.0,
          1982.0,
          1986.0,
          1982.0,
          1981.0,
          1981.0,
          1980.0,
          1980.0,
          1977.0,
          1976.0,
          1978.0,
          1975.0,
          1976.0,
          1980.0,
          1984.0,
          1978.0,
          1974.0,
          1977.0,
          1981.0,
          1979.0,
          1978.0,
          1975.0,
          1976.0,
          1980.0,
          1983.0,
          1975.0,
          1972.0,
          1976.0,
          1982.0,
          1976.0,
          1971.0,
          1973.0,
          1972.0,
          1972.0
        ]
      },
      "slices": {}
    }
  },
  "dummy_trs": 1,
  "dvars_nstd": 69.91661540891894,
  "dvars_std": 1.0386858933783785,
  "dvars_vstd": 1.0177856720945946,
  "efc": 0.5540897693648763,
  "fber": 383.8497009277344,
  "fd_mean": 0.04118658284043366,
  "fd_num": 1,
  "fd_perc": 0.6711409395973155,
  "fwhm_avg": 2.8202004048893463,
  "fwhm_x": 2.726282792719098,
  "fwhm_y": 2.6556093977690702,
  "fwhm_z": 3.07870902417987,
  "gcor": 0.00170173,
  "gsr_x": -0.014489422552287579,
  "gsr_y": 0.06474372744560242,
  "provenance": {
    "md5sum": "bf86149aa96cc95d832fdb8cf308d1d0",
    "settings": {
      "fd_thres": 0.2,
      "testing": false
    },
    "software": "mriqc",
    "version": "23.0.1",
    "webapi_port": null,
    "webapi_url": "https://mriqc.nimh.nih.gov/api/v1"
  },
  "size_t": 149,
  "size_x": 188,
  "size_y": 188,
  "size_z": 46,
  "snr": 2.080616880143428,
  "spacing_tr": 2.5999999046325684,
  "spacing_x": 1.0957447290420532,
  "spacing_y": 1.0957447290420532,
  "spacing_z": 1.100000023841858,
  "summary_bg_k": 49.031519360601294,
  "summary_bg_mad": 22.686799010316065,
  "summary_bg_mean": 82.01812744140625,
  "summary_bg_median": 46.6644287109375,
  "summary_bg_n": 1065270.0,
  "summary_bg_p05": 29.85234832763672,
  "summary_bg_p95": 242.18121337890625,
