{
  "aor": 0.0013473333333333334,
  "aqi": 0.016708261999999998,
  "bids_meta": {
    "AcquisitionMatrixPE": 188,
    "AcquisitionNumber": 1,
    "AcquisitionTime": "10:34:1.992500",
    "BandwidthPerPixelPhaseEncode": 19.46,
    "BaseResolution": 188,
    "CogAtlasID": "TODO",
    "ConversionSoftware": "dcm2niix",
    "ConversionSoftwareVersion": "v1.0.20180606 GCC4.8.5",
    "DelayTime": 1.2,
    "DerivedVendorReportedEchoSpacing": 0.000820013,
    "DeviceSerialNumber": "18930",
    "DwellTime": 1.9e-06,
    "EchoTime": 0.02,
    "EffectiveEchoSpacing": 0.000273338,
    "FlipAngle": 80,
    "ImageComments": "Unaliased_MB2_PE2",
    "ImageOrientationPatientDICOM": [
      0.996737,
      0.0336715,
      -0.0733541,
      -0.080142,
      0.304957,
      -0.948988
    ],
    "ImageType": [
      "ORIGINAL",
      "PRIMARY",
      "M",
      "MB",
      "ND",
      "MOSAIC"
    ],
    "InPlanePhaseEncodingDirectionDICOM": "COL",
    "InstitutionAddress": "Oxfordlaan_55_Maastricht_22AAA2_Limburg_NL_6229_EV",
    "InstitutionName": "Scannexus",
    "InstitutionalDepartmentName": "MRI_7T",
    "MRAcquisitionType": "2D",
    "MagneticFieldStrength": 6.98,
    "Manufacturer": "Siemens",
    "ManufacturersModelName": "Investigational_Device_7T",
    "Modality": "MR",
    "MultibandAccelerationFactor": 2,
    "ParallelReductionFactorInPlane": 3,
    "PartialFourier": 0.75,
    "PatientPosition": "HFS",
    "PercentPhaseFOV": 100,
    "PhaseEncodingDirection": "j",
    "PhaseEncodingSteps": 141,
    "PhaseResolution": 1,
    "PixelBandwidth": 1400,
    "ProcedureStepDescription": "FeDem_Faruk",
    "ProtocolName": "cmrr_mbep2d_bold_AP_run9",
    "PulseSequenceDetails": "%CustomerSeq%_cmrr_mbep2d_bold",
    "ReceiveCoilName": "32Ch_Head_7T",
    "ReconMatrixPE": 188,
    "RepetitionTime": 2.6,
    "SAR": 0.0538588,
    "ScanOptions": "PFP_FS",
    "ScanningSequence": "EP",
    "SequenceName": "epfid2d1_188",
    "SequenceVariant": "SK_SS",
    "SeriesDescription": "cmrr_mbep2d_bold_AP_run9",
    "SeriesNumber": 21,
    "ShimSetting": [
      15,
      -215,
      478,
      327,
      -91,
      -137,
      182,
      154
    ],
    "SliceThickness": 1.1,
    "SliceTiming": [
      0,
      0.7325,
      0.0625,
      0.795,
      0.1225,
      0.855,
      0.185,
      0.9175,
      0.245,
      0.9775,
      0.305,
      1.04,
      0.3675,
      1.1,
      0.4275,
      1.1625,
      0.49,
      1.2225,
      0.55,
      1.2825,
      0.6125,
      1.345,
      0.6725,
      0,
      0.7325,
      0.0625,
      0.795,
      0.1225,
      0.855,
      0.185,
      0.9175,
      0.245,
      0.9775,
      0.305,
      1.04,
      0.3675,
      1.1,
      0.4275,
      1.1625,
      0.49,
      1.2225,
      0.55,
      1.2825,
      0.6125,
      1.345,
      0.6725
    ],
    "SoftwareVersions": "syngo_MR_B17",
    "SpacingBetweenSlices": 1.1,
    "StationName": "MRC18930",
    "TaskName": "auditory",
    "TotalReadoutTime": 0.0511141,
    "TxRefAmp": 195,
    "dataset": "ds001942",
    "dcmmeta_affine": [
      [
        -1.0921697616577148,
        -0.08781520277261734,
        0.010542330332100391,
        107.87574005126953
      ],
      [
        -0.03689532354474068,
        0.33415523171424866,
        -1.0469472408294678,
        20.20245361328125
      ],
      [
        -0.08037740737199783,
        1.0398486852645874,
        0.33732667565345764,
        -111.89634704589844
      ],
      [
        0.0,
        0.0,
        0.0,
        1.0
      ]
    ],
    "dcmmeta_reorient_transform": [
      [
        0.0,
        -1.0,
        0.0,
        187.0
      ],
      [
        1.0,
        0.0,
        0.0,
        0.0
      ],
      [
        0.0,
        0.0,
        1.0,
        0.0
      ],
      [
        0.0,
        0.0,
        0.0,
        1.0
      ]
    ],
    "dcmmeta_shape": [
      188,
      188,
      46,
      150
    ],
    "dcmmeta_slice_dim": 2,
    "dcmmeta_version": 0.6,
    "global": {
      "const": {
        "AcquisitionMatrix": [
          188,
          0,
          0,
          188
        ],
        "AngioFlag": "N",
        "BitsAllocated": 16,
        "BitsStored": 12,
        "Columns": 1316,
        "EchoNumbers": 1,
        "EchoTime": 20.0,
        "EchoTrainLength": 1,
        "FlipAngle": 80.0,
        "HighBit": 11,
        "ImageOrientationPatient": [
          0.99673737947879,
          0.03367145757805,
          -0.0733541361774,
          -0.0801420266192,
          0.3049571876327,
          -0.9489880764691
        ],
        "ImagePositionPatient": [
          -657.910247797,
          -291.96199391522,
          714.36287235052
        ],
        "ImageType": [
          "ORIGINAL",
          "PRIMARY",
          "M",
          "MB",
          "ND",
          "MOSAIC"
        ],
        "ImagedNucleus": "1H",
        "ImagingFrequency": 297.205596,
        "InPlanePhaseEncodingDirection": "COL",
        "LargestImagePixelValue": 4095,
        "MRAcquisitionType": "2D",
        "MagneticFieldStrength": 6.98,
        "Manufacturer": "SIEMENS",
        "ManufacturerModelName": "Investigational_Device_7T",
        "Modality": "MR",
        "NumberOfAverages": 1.0,
        "NumberOfPhaseEncodingSteps": 141,
        "PercentPhaseFieldOfView": 100.0,
        "PercentSampling": 100.0,
        "PerformedProcedureStepStartTime": "085813.937000",
        "PhotometricInterpretation": "MONOCHROME2",
        "PixelBandwidth": 1400.0,
        "PixelRepresentation": 0,
        "PixelSpacing": [
          1.0957447290421,
          1.0957447290421
        ],
        "ProtocolName": "cmrr_mbep2d_bold_AP_run9",
        "RepetitionTime": 2600.0,
        "Rows": 1316,
        "SAR": 0.05385877235952,
        "SamplesPerPixel": 1,
        "ScanOptions": [
          "PFP",
          "FS"
        ],
        "ScanningSequence": "EP",
        "SequenceName": "epfid2d1_188",
        "SequenceVariant": [
          "SK",
          "SS"
        ],
        "SeriesDescription": "cmrr_mbep2d_bold_AP_run9",
        "SeriesNumber": 21,
        "SeriesTime": "103411.171000",
        "SliceLocation": -52.508442610931,
        "SliceThickness": 1.1000000238419,
        "SmallestImagePixelValue": 0,
        "SoftwareVersions": "syngo MR B17",
        "SpacingBetweenSlices": 1.0999995674712,
        "SpecificCharacterSet": "ISO_IR 100",
        "StudyID": "1",
        "StudyTime": "085813.875000",
        "TransmitCoilName": "32Ch_Head_7T",
        "VariableFlipAngleFlag": "N",
        "WindowCenterWidthExplanation": "Algo1",
        "dBdt": 0.0
      },
      "slices": {}
    },
    "modality": "bold",
    "run_id": 9,
    "session_id": "SES02",
    "subject_id": "S06",
    "task_id": "auditory",
    "time": {
      "samples": {
        "AcquisitionNumber": [
          1,
          2,
          3,
          4,
          5,
          6,
          7,
          8,
          9,
          10,
          11,
          12,
          13,
          14,
          15,
          16,
          17,
          18,
          19,
          20,
          21,
          22,
          23,
          24,
          25,
          26,
          27,
          28,
          29,
          30,
          31,
          32,
          33,
          34,
          35,
          36,
          37,
          38,
          39,
          40,
          41,
          42,
          43,
          44,
          45,
          46,
          47,
          48,
          49,
          50,
          51,
          52,
          53,
          54,
          55,
          56,
          57,
          58,
          59,
          60,
          61,
          62,
          63,
          64,
          65,
          66,
          67,
          68,
          69,
          70,
          71,
          72,
          73,
          74,
          75,
          76,
          77,
          78,
          79,
          80,
          81,
          82,
          83,
          84,
          85,
          86,
          87,
          88,
          89,
          90,
          91,
          92,
          93,
          94,
          95,
          96,
          97,
          98,
          99,
          100,
          101,
          102,
          103,
          104,
          105,
          106,
          107,
          108,
          109,
          110,
          111,
          112,
          113,
          114,
          115,
          116,
          117,
          118,
          119,
          120,
          121,
          122,
          123,
          124,
          125,
          126,
          127,
          128,
          129,
          130,
          131,
          132,
          133,
          134,
          135,
          136,
          137,
          138,
          139,
          140,
          141,
          142,
          143,
          144,
          145,
          146,
          147,
          148,
          149,
          150
        ],
        "AcquisitionTime": [
          "103401.992500",
          "103404.602500",
          "103407.215000",
          "103409.825000",
          "103412.435000",
          "103415.045000",
          "103417.655000",
          "103420.265000",
          "103422.877500",
          "103425.487500",
          "103428.097500",
          "103430.707500",
          "103433.317500",
          "103435.927500",
          "103438.540000",
          "103441.150000",
          "103443.760000",
          "103446.370000",
          "103448.980000",
          "103451.592500",
          "103454.202500",
          "103456.812500",
          "103459.422500",
          "103502.032500",
          "103504.642500",
          "103507.255000",
          "103509.865000",
          "103512.475000",
          "103515.085000",
          "103517.695000",
          "103520.305000",
          "103522.917500",
          "103525.527500",
          "103528.137500",
          "103530.747500",
          "103533.357500",
          "103535.970000",
          "103538.580000",
          "103541.190000",
          "103543.800000",
          "103546.410000",
          "103549.020000",
          "103551.632500",
          "103554.242500",
          "103556.852500",
          "103559.462500",
          "103602.072500",
          "103604.682500",
          "103607.295000",
          "103609.905000",
          "103612.515000",
          "103615.125000",
          "103617.735000",
          "103620.347500",
          "103622.957500",
          "103625.567500",
          "103628.177500",
          "103630.787500",
          "103633.397500",
          "103636.010000",
          "103638.620000",
          "103641.230000",
          "103643.840000",
          "103646.450000",
          "103649.060000",
          "103651.672500",
          "103654.282500",
          "103656.892500",
          "103659.502500",
          "103702.112500",
          "103704.725000",
          "103707.335000",
          "103709.945000",
          "103712.555000",
          "103715.165000",
          "103717.775000",
          "103720.387500",
          "103722.997500",
          "103725.607500",
          "103728.217500",
          "103730.827500",
          "103733.437500",
          "103736.050000",
          "103738.660000",
          "103741.270000",
          "103743.880000",
          "103746.490000",
          "103749.102500",
          "103751.712500",
          "103754.322500",
          "103756.932500",
          "103759.542500",
          "103802.152500",
          "103804.765000",
          "103807.375000",
          "103809.985000",
          "103812.595000",
          "103815.205000",
          "103817.815000",
          "103820.427500",
          "103823.037500",
          "103825.647500",
          "103828.257500",
          "103830.867500",
          "103833.480000",
          "103836.090000",
          "103838.700000",
          "103841.310000",
          "103843.920000",
          "103846.530000",
          "103849.142500",
          "103851.752500",
          "103854.362500",
          "103856.972500",
          "103859.582500",
          "103902.195000",
          "103904.805000",
          "103907.415000",
          "103910.025000",
          "103912.635000",
          "103915.245000",
          "103917.857500",
          "103920.467500",
          "103923.077500",
          "103925.687500",
          "103928.297500",
          "103930.907500",
          "103933.520000",
          "103936.130000",
          "103938.740000",
          "103941.350000",
          "103943.960000",
          "103946.572500",
          "103949.182500",
          "103951.792500",
          "103954.402500",
          "103957.012500",
          "103959.622500",
          "104002.235000",
          "104004.845000",
          "104007.455000",
          "104010.065000",
          "104012.675000",
          "104015.285000",
          "104017.897500",
          "104020.507500",
          "104023.117500",
          "104025.727500",
          "104028.337500",
          "104030.950000"
        ],
        "ContentTime": [
          "103411.187000",
          "103412.171000",
          "103412.171000",
          "103414.171000",
          "103417.171000",
          "103419.671000",
          "103422.171000",
          "103424.671000",
          "103427.171000",
          "103430.171000",
          "103432.671000",
          "103435.171000",
          "103437.671000",
          "103440.171000",
          "103443.171000",
          "103445.671000",
          "103448.171000",
          "103450.671000",
          "103453.171000",
          "103456.171000",
          "103458.671000",
          "103501.171000",
          "103503.671000",
          "103506.171000",
          "103509.171000",
          "103511.671000",
          "103514.171000",
          "103516.671000",
          "103519.171000",
          "103522.171000",
          "103524.671000",
          "103527.171000",
          "103529.671000",
          "103532.171000",
          "103535.171000",
          "103537.671000",
          "103540.171000",
          "103542.671000",
          "103545.171000",
          "103548.171000",
          "103550.671000",
          "103553.171000",
          "103555.671000",
          "103558.171000",
          "103601.171000",
          "103603.671000",
          "103606.171000",
          "103608.671000",
          "103611.171000",
          "103614.171000",
          "103616.671000",
          "103619.171000",
          "103621.671000",
          "103624.171000",
          "103627.171000",
          "103629.671000",
          "103632.171000",
          "103634.671000",
          "103637.171000",
          "103640.171000",
          "103642.671000",
          "103645.171000",
          "103647.671000",
          "103650.171000",
          "103653.171000",
          "103655.671000",
          "103658.171000",
          "103700.671000",
          "103703.171000",
          "103706.171000",
          "103708.671000",
          "103711.171000",
          "103713.671000",
          "103716.171000",
          "103719.171000",
          "103721.671000",
          "103724.171000",
          "103726.671000",
          "103729.171000",
          "103732.171000",
          "103734.671000",
          "103737.171000",
          "103739.671000",
          "103742.171000",
          "103745.171000",
          "103747.671000",
          "103750.171000",
          "103752.671000",
          "103755.171000",
          "103758.171000",
          "103800.671000",
          "103803.171000",
          "103805.671000",
          "103808.171000",
          "103811.171000",
          "103813.671000",
          "103816.171000",
          "103818.671000",
          "103821.171000",
          "103824.171000",
          "103826.671000",
          "103829.171000",
          "103831.671000",
          "103834.171000",
          "103837.171000",
          "103839.671000",
          "103842.171000",
          "103844.671000",
          "103847.171000",
          "103850.171000",
          "103852.671000",
          "103855.171000",
          "103857.671000",
          "103900.171000",
          "103903.171000",
          "103905.671000",
          "103908.171000",
          "103910.671000",
          "103913.171000",
          "103916.171000",
          "103918.671000",
          "103921.171000",
          "103923.671000",
          "103926.171000",
          "103929.171000",
          "103931.671000",
          "103934.171000",
          "103936.671000",
          "103939.171000",
          "103942.171000",
          "103944.671000",
          "103947.171000",
          "103949.671000",
          "103952.171000",
          "103955.171000",
          "103957.671000",
          "104000.171000",
          "104002.671000",
          "104005.171000",
          "104008.171000",
          "104010.671000",
          "104013.171000",
          "104015.671000",
          "104018.171000",
          "104021.171000",
          "104023.671000",
          "104026.171000",
          "104028.671000",
          "104031.171000",
          "104038.718000"
        ],
        "InstanceCreationTime": [
          "103411.187000",
          "103412.171000",
          "103412.171000",
          "103414.171000",
          "103417.171000",
          "103419.671000",
          "103422.171000",
          "103424.671000",
          "103427.171000",
          "103430.171000",
          "103432.671000",
          "103435.171000",
          "103437.671000",
          "103440.171000",
          "103443.171000",
          "103445.671000",
          "103448.171000",
          "103450.671000",
          "103453.171000",
          "103456.171000",
          "103458.671000",
          "103501.171000",
          "103503.671000",
          "103506.171000",
          "103509.171000",
          "103511.671000",
          "103514.171000",
          "103516.671000",
          "103519.171000",
          "103522.171000",
          "103524.671000",
          "103527.171000",
          "103529.671000",
          "103532.171000",
          "103535.171000",
          "103537.671000",
          "103540.171000",
          "103542.671000",
          "103545.171000",
          "103548.171000",
          "103550.671000",
          "103553.171000",
          "103555.671000",
          "103558.171000",
          "103601.171000",
          "103603.671000",
          "103606.171000",
          "103608.671000",
          "103611.171000",
          "103614.171000",
          "103616.671000",
          "103619.171000",
          "103621.671000",
          "103624.171000",
          "103627.171000",
          "103629.671000",
          "103632.171000",
          "103634.671000",
          "103637.171000",
          "103640.171000",
          "103642.671000",
          "103645.171000",
          "103647.671000",
          "103650.171000",
          "103653.171000",
          "103655.671000",
          "103658.171000",
          "103700.671000",
          "103703.171000",
          "103706.171000",
          "103708.671000",
          "103711.171000",
          "103713.671000",
          "103716.171000",
          "103719.171000",
          "103721.671000",
          "103724.171000",
          "103726.671000",
          "103729.171000",
          "103732.171000",
          "103734.671000",
          "103737.171000",
          "103739.671000",
          "103742.171000",
          "103745.171000",
          "103747.671000",
          "103750.171000",
          "103752.671000",
          "103755.171000",
          "103758.171000",
          "103800.671000",
          "103803.171000",
          "103805.671000",
          "103808.171000",
          "103811.171000",
          "103813.671000",
          "103816.171000",
          "103818.671000",
          "103821.171000",
          "103824.171000",
          "103826.671000",
          "103829.171000",
          "103831.671000",
          "103834.171000",
          "103837.171000",
          "103839.671000",
          "103842.171000",
          "103844.671000",
          "103847.171000",
          "103850.171000",
          "103852.671000",
          "103855.171000",
          "103857.671000",
          "103900.171000",
          "103903.171000",
          "103905.671000",
          "103908.171000",
          "103910.671000",
          "103913.171000",
          "103916.171000",
          "103918.671000",
          "103921.171000",
          "103923.671000",
          "103926.171000",
          "103929.171000",
          "103931.671000",
          "103934.171000",
          "103936.671000",
          "103939.171000",
          "103942.171000",
          "103944.671000",
          "103947.171000",
          "103949.671000",
          "103952.171000",
          "103955.171000",
          "103957.671000",
          "104000.171000",
          "104002.671000",
          "104005.171000",
          "104008.171000",
          "104010.671000",
          "104013.171000",
          "104015.671000",
          "104018.171000",
          "104021.171000",
          "104023.671000",
          "104026.171000",
          "104028.671000",
          "104031.171000",
          "104038.718000"
        ],
        "InstanceNumber": [
          1,
          2,
          3,
          4,
          5,
          6,
          7,
          8,
          9,
          10,
          11,
          12,
          13,
          14,
          15,
          16,
          17,
          18,
          19,
          20,
          21,
          22,
          23,
          24,
          25,
          26,
          27,
          28,
          29,
          30,
          31,
          32,
          33,
          34,
          35,
          36,
          37,
          38,
          39,
          40,
          41,
          42,
          43,
          44,
          45,
          46,
          47,
          48,
          49,
          50,
          51,
          52,
          53,
          54,
          55,
          56,
          57,
          58,
          59,
          60,
          61,
          62,
          63,
          64,
          65,
          66,
          67,
          68,
          69,
          70,
          71,
          72,
          73,
          74,
          75,
          76,
          77,
          78,
          79,
          80,
          81,
          82,
          83,
          84,
          85,
          86,
          87,
          88,
          89,
          90,
          91,
          92,
          93,
          94,
          95,
          96,
          97,
          98,
          99,
          100,
          101,
          102,
          103,
          104,
          105,
          106,
          107,
          108,
          109,
          110,
          111,
          112,
          113,
          114,
          115,
          116,
          117,
          118,
          119,
          120,
          121,
          122,
          123,
          124,
          125,
          126,
          127,
          128,
          129,
          130,
          131,
          132,
          133,
          134,
          135,
          136,
          137,
          138,
          139,
          140,
          141,
          142,
          143,
          144,
          145,
          146,
          147,
          148,
          149,
          150
        ],
        "WindowCenter": [
          817.0,
          816.0,
          815.0,
          816.0,
          817.0,
          818.0,
          818.0,
          817.0,
          816.0,
          817.0,
          818.0,
          819.0,
          818.0,
          819.0,
          820.0,
          822.0,
          820.0,
          818.0,
          817.0,
          818.0,
          819.0,
          819.0,
          819.0,
          819.0,
          819.0,
          819.0,
          819.0,
          818.0,
          817.0,
          817.0,
          818.0,
          820.0,
          820.0,
          819.0,
          819.0,
          818.0,
          820.0,
          822.0,
          822.0,
          820.0,
          818.0,
          816.0,
          816.0,
          816.0,
          817.0,
          818.0,
          817.0,
          817.0,
          817.0,
          820.0,
          822.0,
          820.0,
          817.0,
          816.0,
          818.0,
          817.0,
          817.0,
          817.0,
          817.0,
          817.0,
          817.0,
          819.0,
          818.0,
          817.0,
          818.0,
          817.0,
          817.0,
          816.0,
          817.0,
          818.0,
          819.0,
          819.0,
          819.0,
          821.0,
          819.0,
          816.0,
          815.0,
          815.0,
          814.0,
          814.0,
          815.0,
          815.0,
          816.0,
          817.0,
          817.0,
          817.0,
          816.0,
          818.0,
          819.0,
          819.0,
          818.0,
          817.0,
          816.0,
          816.0,
          816.0,
          818.0,
          818.0,
          820.0,
          821.0,
          819.0,
          817.0,
          816.0,
          815.0,
          815.0,
          815.0,
          816.0,
          817.0,
          820.0,
          820.0,
          817.0,
          813.0,
          814.0,
          814.0,
          814.0,
          815.0,
          814.0,
          815.0,
          816.0,
          819.0,
          821.0,
          821.0,
          821.0,
          820.0,
          819.0,
          817.0,
          817.0,
          816.0,
          816.0,
          816.0,
          816.0,
          817.0,
          817.0,
          817.0,
          819.0,
          818.0,
          816.0,
          815.0,
          816.0,
          818.0,
          818.0,
          818.0,
          817.0,
          815.0,
          814.0,
          814.0,
          814.0,
          815.0,
          816.0,
          816.0,
          816.0
        ],
        "WindowWidth": [
          1806.0,
          1801.0,
          1800.0,
          1802.0,
          1805.0,
          1810.0,
          1808.0,
          1804.0,
          1802.0,
          1807.0,
          1809.0,
          1811.0,
          1809.0,
          1811.0,
          1816.0,
          1821.0,
          1816.0,
          1809.0,
          1807.0,
          1808.0,
          1811.0,
          1810.0,
          1810.0,
          1812.0,
          1811.0,
          1811.0,
          1810.0,
          1808.0,
          1805.0,
          1806.0,
          1809.0,
          1814.0,
          1813.0,
          1812.0,
          1811.0,
          1809.0,
          1814.0,
          1822.0,
          1821.0,
          1813.0,
          1808.0,
          1801.0,
          1802.0,
          1803.0,
          1805.0,
          1807.0,
          1806.0,
          1805.0,
          1806.0,
          1816.0,
          1820.0,
          1813.0,
          1806.0,
          1803.0,
          1808.0,
          1805.0,
          1804.0,
          1805.0,
          1805.0,
          1804.0,
          1806.0,
          1810.0,
          1808.0,
          1807.0,
          1809.0,
          1806.0,
          1806.0,
          1802.0,
          1804.0,
          1811.0,
          1813.0,
          1812.0,
          1813.0,
          1818.0,
          1811.0,
          1802.0,
          1799.0,
          1798.0,
          1796.0,
          1797.0,
          1799.0,
          1799.0,
          1802.0,
          1806.0,
          1807.0,
          1805.0,
          1804.0,
          1810.0,
          1812.0,
          1811.0,
          1808.0,
          1804.0,
          1803.0,
          1801.0,
          1803.0,
          1809.0,
          1808.0,
          1816.0,
          1818.0,
          1812.0,
          1806.0,
          1803.0,
          1800.0,
          1799.0,
          1800.0,
          1801.0,
          1805.0,
          1815.0,
          1815.0,
          1803.0,
          1792.0,
          1795.0,
          1795.0,
          1797.0,
          1799.0,
          1797.0,
          1798.0,
          1804.0,
          1813.0,
          1819.0,
          1816.0,
          1816.0,
          1814.0,
          1811.0,
          1806.0,
          1805.0,
          1802.0,
          1802.0,
          1802.0,
          1802.0,
          1804.0,
          1805.0,
          1807.0,
          1812.0,
          1809.0,
          1802.0,
          1798.0,
          1802.0,
          1810.0,
          1809.0,
          1808.0,
          1804.0,
          1799.0,
          1797.0,
          1797.0,
          1798.0,
          1801.0,
          1801.0,
          1801.0,
          1801.0
        ]
      },
      "slices": {}
    }
  },
  "dummy_trs": 0,
  "dvars_nstd": 76.51085381214763,
  "dvars_std": 1.0600151958389261,
  "dvars_vstd": 1.0233414073154363,
  "efc": 0.5874364653479107,
  "fber": 233.71266174316406,
  "fd_mean": 0.08927465049787243,
  "fd_num": 8,
  "fd_perc": 5.333333333333333,
  "fwhm_avg": 2.90456910738831,
  "fwhm_x": 2.5496175577704108,
  "fwhm_y": 2.9298429779412527,
  "fwhm_z": 3.2342467864532676,
  "gcor": 0.00419371,
  "gsr_x": -0.043701693415641785,
  "gsr_y": 0.08251774311065674,
  "provenance": {
    "md5sum": "17bfd6318283c726c4d883dcc370c0d6",
    "settings": {
      "fd_thres": 0.2,
      "testing": false
    },
    "software": "mriqc",
    "version": "22.0.6",
    "webapi_port": null,
    "webapi_url": "https://mriqc.nimh.nih.gov/api/v1"
  },
  "size_t": 150,
  "size_x": 188,
  "size_y": 188,
  "size_z": 46,
  "snr": 2.0691841072973727,
  "spacing_tr": 2.5999999046325684,
  "spacing_x": 1.0957447290420532,
  "spacing_y": 1.0957447290420532,
  "spacing_z": 1.0999995470046997,
  "summary_bg_k": 23.452790352841948,
  "summary_bg_mad": 29.978213012321802,
  "summary_bg_mean": 87.03367614746094,
  "summary_bg_median": 51.46000289916992,
  "summary_bg_n": 1021620.0,
  "summary_bg_p05": 27.739999771118164,
