{
  "aor": 0.000632,
  "aqi": 0.014249435333333333,
  "bids_meta": {
    "AcquisitionMatrixPE": 188,
    "AcquisitionNumber": 1,
    "AcquisitionTime": "10:58:4.017500",
    "BandwidthPerPixelPhaseEncode": 19.46,
    "BaseResolution": 188,
    "CogAtlasID": "TODO",
    "ConversionSoftware": "dcm2niix",
    "ConversionSoftwareVersion": "v1.0.20180606 GCC4.8.5",
    "DelayTime": 1.2,
    "DerivedVendorReportedEchoSpacing": 0.000820013,
    "DeviceSerialNumber": "18930",
    "DwellTime": 1.9e-06,
    "EchoTime": 0.02,
    "EffectiveEchoSpacing": 0.000273338,
    "FlipAngle": 80,
    "ImageComments": "Unaliased_MB2_PE2",
    "ImageOrientationPatientDICOM": [
      0.996737,
      0.0336715,
      -0.0733541,
      -0.080142,
      0.304957,
      -0.948988
    ],
    "ImageType": [
      "ORIGINAL",
      "PRIMARY",
      "M",
      "MB",
      "ND",
      "MOSAIC"
    ],
    "InPlanePhaseEncodingDirectionDICOM": "COL",
    "InstitutionAddress": "Oxfordlaan_55_Maastricht_22AAA2_Limburg_NL_6229_EV",
    "InstitutionName": "Scannexus",
    "InstitutionalDepartmentName": "MRI_7T",
    "MRAcquisitionType": "2D",
    "MagneticFieldStrength": 6.98,
    "Manufacturer": "Siemens",
    "ManufacturersModelName": "Investigational_Device_7T",
    "Modality": "MR",
    "MultibandAccelerationFactor": 2,
    "ParallelReductionFactorInPlane": 3,
    "PartialFourier": 0.75,
    "PatientPosition": "HFS",
    "PercentPhaseFOV": 100,
    "PhaseEncodingDirection": "j",
    "PhaseEncodingSteps": 141,
    "PhaseResolution": 1,
    "PixelBandwidth": 1400,
    "ProcedureStepDescription": "FeDem_Faruk",
    "ProtocolName": "cmrr_mbep2d_bold_AP_run12",
    "PulseSequenceDetails": "%CustomerSeq%_cmrr_mbep2d_bold",
    "ReceiveCoilName": "32Ch_Head_7T",
    "ReconMatrixPE": 188,
    "RepetitionTime": 2.6,
    "SAR": 0.0538019,
    "ScanOptions": "PFP_FS",
    "ScanningSequence": "EP",
    "SequenceName": "epfid2d1_188",
    "SequenceVariant": "SK_SS",
    "SeriesDescription": "cmrr_mbep2d_bold_AP_run12",
    "SeriesNumber": 24,
    "ShimSetting": [
      15,
      -215,
      478,
      327,
      -91,
      -137,
      182,
      154
    ],
    "SliceThickness": 1.1,
    "SliceTiming": [
      0,
      0.7325,
      0.06,
      0.795,
      0.1225,
      0.855,
      0.1825,
      0.915,
      0.245,
      0.9775,
      0.305,
      1.0375,
      0.365,
      1.1,
      0.4275,
      1.16,
      0.4875,
      1.2225,
      0.55,
      1.2825,
      0.61,
      1.345,
      0.6725,
      0,
      0.7325,
      0.06,
      0.795,
      0.1225,
      0.855,
      0.1825,
      0.915,
      0.245,
      0.9775,
      0.305,
      1.0375,
      0.365,
      1.1,
      0.4275,
      1.16,
      0.4875,
      1.2225,
      0.55,
      1.2825,
      0.61,
      1.345,
      0.6725
    ],
    "SoftwareVersions": "syngo_MR_B17",
    "SpacingBetweenSlices": 1.1,
    "StationName": "MRC18930",
    "TaskName": "auditory",
    "TotalReadoutTime": 0.0511141,
    "TxRefAmp": 195,
    "dataset": "ds001942",
    "dcmmeta_affine": [
      [
        -1.0921697616577148,
        -0.08781520277261734,
        0.010542330332100391,
        107.87574005126953
      ],
      [
        -0.03689532354474068,
        0.33415523171424866,
        -1.0469472408294678,
        20.20245361328125
      ],
      [
        -0.08037740737199783,
        1.0398486852645874,
        0.33732667565345764,
        -111.89634704589844
      ],
      [
        0.0,
        0.0,
        0.0,
        1.0
      ]
    ],
    "dcmmeta_reorient_transform": [
      [
        0.0,
        -1.0,
        0.0,
        187.0
      ],
      [
        1.0,
        0.0,
        0.0,
        0.0
      ],
      [
        0.0,
        0.0,
        1.0,
        0.0
      ],
      [
        0.0,
        0.0,
        0.0,
        1.0
      ]
    ],
    "dcmmeta_shape": [
      188,
      188,
      46,
      150
    ],
    "dcmmeta_slice_dim": 2,
    "dcmmeta_version": 0.6,
    "global": {
      "const": {
        "AcquisitionMatrix": [
          188,
          0,
          0,
          188
        ],
        "AngioFlag": "N",
        "BitsAllocated": 16,
        "BitsStored": 12,
        "Columns": 1316,
        "EchoNumbers": 1,
        "EchoTime": 20.0,
        "EchoTrainLength": 1,
        "FlipAngle": 80.0,
        "HighBit": 11,
        "ImageOrientationPatient": [
          0.99673737947879,
          0.03367145757805,
          -0.0733541361774,
          -0.0801420266192,
          0.3049571876327,
          -0.9489880764691
        ],
        "ImagePositionPatient": [
          -657.910247797,
          -291.96199391522,
          714.36287235052
        ],
        "ImageType": [
          "ORIGINAL",
          "PRIMARY",
          "M",
          "MB",
          "ND",
          "MOSAIC"
        ],
        "ImagedNucleus": "1H",
        "ImagingFrequency": 297.205602,
        "InPlanePhaseEncodingDirection": "COL",
        "LargestImagePixelValue": 4095,
        "MRAcquisitionType": "2D",
        "MagneticFieldStrength": 6.98,
        "Manufacturer": "SIEMENS",
        "ManufacturerModelName": "Investigational_Device_7T",
        "Modality": "MR",
        "NumberOfAverages": 1.0,
        "NumberOfPhaseEncodingSteps": 141,
        "PercentPhaseFieldOfView": 100.0,
        "PercentSampling": 100.0,
        "PerformedProcedureStepStartTime": "085813.937000",
        "PhotometricInterpretation": "MONOCHROME2",
        "PixelBandwidth": 1400.0,
        "PixelRepresentation": 0,
        "PixelSpacing": [
          1.0957447290421,
          1.0957447290421
        ],
        "ProtocolName": "cmrr_mbep2d_bold_AP_run12",
        "RepetitionTime": 2600.0,
        "Rows": 1316,
        "SAR": 0.05380192538635,
        "SamplesPerPixel": 1,
        "ScanOptions": [
          "PFP",
          "FS"
        ],
        "ScanningSequence": "EP",
        "SequenceName": "epfid2d1_188",
        "SequenceVariant": [
          "SK",
          "SS"
        ],
        "SeriesDescription": "cmrr_mbep2d_bold_AP_run12",
        "SeriesNumber": 24,
        "SeriesTime": "105812.937000",
        "SliceLocation": -52.508442610931,
        "SliceThickness": 1.1000000238419,
        "SmallestImagePixelValue": 0,
        "SoftwareVersions": "syngo MR B17",
        "SpacingBetweenSlices": 1.0999995674712,
        "SpecificCharacterSet": "ISO_IR 100",
        "StudyID": "1",
        "StudyTime": "085813.875000",
        "TransmitCoilName": "32Ch_Head_7T",
        "VariableFlipAngleFlag": "N",
        "WindowCenterWidthExplanation": "Algo1",
        "dBdt": 0.0
      },
      "slices": {}
    },
    "modality": "bold",
    "run_id": 12,
    "session_id": "SES02",
    "subject_id": "S06",
    "task_id": "auditory",
    "time": {
      "samples": {
        "AcquisitionNumber": [
          1,
          2,
          3,
          4,
          5,
          6,
          7,
          8,
          9,
          10,
          11,
          12,
          13,
          14,
          15,
          16,
          17,
          18,
          19,
          20,
          21,
          22,
          23,
          24,
          25,
          26,
          27,
          28,
          29,
          30,
          31,
          32,
          33,
          34,
          35,
          36,
          37,
          38,
          39,
          40,
          41,
          42,
          43,
          44,
          45,
          46,
          47,
          48,
          49,
          50,
          51,
          52,
          53,
          54,
          55,
          56,
          57,
          58,
          59,
          60,
          61,
          62,
          63,
          64,
          65,
          66,
          67,
          68,
          69,
          70,
          71,
          72,
          73,
          74,
          75,
          76,
          77,
          78,
          79,
          80,
          81,
          82,
          83,
          84,
          85,
          86,
          87,
          88,
          89,
          90,
          91,
          92,
          93,
          94,
          95,
          96,
          97,
          98,
          99,
          100,
          101,
          102,
          103,
          104,
          105,
          106,
          107,
          108,
          109,
          110,
          111,
          112,
          113,
          114,
          115,
          116,
          117,
          118,
          119,
          120,
          121,
          122,
          123,
          124,
          125,
          126,
          127,
          128,
          129,
          130,
          131,
          132,
          133,
          134,
          135,
          136,
          137,
          138,
          139,
          140,
          141,
          142,
          143,
          144,
          145,
          146,
          147,
          148,
          149,
          150
        ],
        "AcquisitionTime": [
          "105804.017500",
          "105806.627500",
          "105809.237500",
          "105811.847500",
          "105814.457500",
          "105817.070000",
          "105819.680000",
          "105822.290000",
          "105824.900000",
          "105827.510000",
          "105830.122500",
          "105832.732500",
          "105835.342500",
          "105837.952500",
          "105840.562500",
          "105843.172500",
          "105845.785000",
          "105848.395000",
          "105851.005000",
          "105853.615000",
          "105856.225000",
          "105858.837500",
          "105901.447500",
          "105904.057500",
          "105906.667500",
          "105909.277500",
          "105911.887500",
          "105914.500000",
          "105917.110000",
          "105919.720000",
          "105922.330000",
          "105924.940000",
          "105927.550000",
          "105930.162500",
          "105932.772500",
          "105935.382500",
          "105937.992500",
          "105940.602500",
          "105943.215000",
          "105945.825000",
          "105948.435000",
          "105951.045000",
          "105953.655000",
          "105956.265000",
          "105958.877500",
          "110001.487500",
          "110004.097500",
          "110006.707500",
          "110009.317500",
          "110011.927500",
          "110014.540000",
          "110017.150000",
          "110019.760000",
          "110022.370000",
          "110024.980000",
          "110027.592500",
          "110030.202500",
          "110032.812500",
          "110035.422500",
          "110038.032500",
          "110040.642500",
          "110043.255000",
          "110045.865000",
          "110048.475000",
          "110051.085000",
          "110053.695000",
          "110056.305000",
          "110058.917500",
          "110101.527500",
          "110104.137500",
          "110106.747500",
          "110109.357500",
          "110111.970000",
          "110114.580000",
          "110117.190000",
          "110119.800000",
          "110122.410000",
          "110125.020000",
          "110127.632500",
          "110130.242500",
          "110132.852500",
          "110135.462500",
          "110138.072500",
          "110140.682500",
          "110143.295000",
          "110145.905000",
          "110148.515000",
          "110151.125000",
          "110153.735000",
          "110156.347500",
          "110158.957500",
          "110201.567500",
          "110204.177500",
          "110206.787500",
          "110209.397500",
          "110212.010000",
          "110214.620000",
          "110217.230000",
          "110219.840000",
          "110222.450000",
          "110225.060000",
          "110227.672500",
          "110230.282500",
          "110232.892500",
          "110235.502500",
          "110238.112500",
          "110240.725000",
          "110243.335000",
          "110245.945000",
          "110248.555000",
          "110251.165000",
          "110253.775000",
          "110256.387500",
          "110258.997500",
          "110301.607500",
          "110304.217500",
          "110306.827500",
          "110309.437500",
          "110312.050000",
          "110314.660000",
          "110317.270000",
          "110319.880000",
          "110322.490000",
          "110325.102500",
          "110327.712500",
          "110330.322500",
          "110332.932500",
          "110335.542500",
          "110338.152500",
          "110340.765000",
          "110343.375000",
          "110345.985000",
          "110348.595000",
          "110351.205000",
          "110353.815000",
          "110356.427500",
          "110359.037500",
          "110401.647500",
          "110404.257500",
          "110406.867500",
          "110409.480000",
          "110412.090000",
          "110414.700000",
          "110417.310000",
          "110419.920000",
          "110422.530000",
          "110425.142500",
          "110427.752500",
          "110430.362500",
          "110432.972500"
        ],
        "ContentTime": [
          "105812.937000",
          "105813.437000",
          "105813.937000",
          "105816.437000",
          "105818.937000",
          "105821.437000",
          "105823.937000",
          "105826.937000",
          "105829.437000",
          "105831.937000",
          "105834.437000",
          "105836.937000",
          "105839.937000",
          "105842.437000",
          "105844.937000",
          "105847.437000",
          "105849.937000",
          "105852.937000",
          "105855.437000",
          "105857.937000",
          "105900.437000",
          "105902.937000",
          "105905.937000",
          "105908.437000",
          "105910.937000",
          "105913.437000",
          "105915.937000",
          "105918.937000",
          "105921.437000",
          "105923.937000",
          "105926.437000",
          "105928.937000",
          "105931.937000",
          "105934.437000",
          "105936.937000",
          "105939.437000",
          "105941.937000",
          "105944.937000",
          "105947.437000",
          "105949.937000",
          "105952.437000",
          "105954.937000",
          "105957.937000",
          "110000.437000",
          "110002.937000",
          "110005.437000",
          "110007.937000",
          "110010.937000",
          "110013.437000",
          "110015.937000",
          "110018.437000",
          "110020.937000",
          "110023.937000",
          "110026.437000",
          "110028.937000",
          "110031.437000",
          "110033.937000",
          "110036.937000",
          "110039.437000",
          "110041.937000",
          "110044.437000",
          "110046.937000",
          "110049.937000",
          "110052.437000",
          "110054.937000",
          "110057.437000",
          "110059.937000",
          "110102.937000",
          "110105.437000",
          "110107.937000",
          "110110.437000",
          "110112.937000",
          "110115.937000",
          "110118.437000",
          "110120.937000",
          "110123.437000",
          "110125.937000",
          "110128.937000",
          "110131.437000",
          "110133.937000",
          "110136.437000",
          "110138.937000",
          "110141.937000",
          "110144.437000",
          "110146.937000",
          "110149.437000",
          "110151.937000",
          "110154.937000",
          "110157.437000",
          "110159.937000",
          "110202.437000",
          "110204.937000",
          "110207.937000",
          "110210.437000",
          "110212.937000",
          "110215.437000",
          "110217.937000",
          "110220.937000",
          "110223.437000",
          "110225.937000",
          "110228.437000",
          "110230.937000",
          "110233.937000",
          "110236.437000",
          "110238.937000",
          "110241.437000",
          "110243.937000",
          "110246.937000",
          "110249.437000",
          "110251.937000",
          "110254.437000",
          "110256.937000",
          "110259.937000",
          "110302.437000",
          "110304.937000",
          "110307.437000",
          "110309.937000",
          "110312.937000",
          "110315.437000",
          "110317.937000",
          "110320.437000",
          "110322.937000",
          "110325.937000",
          "110328.437000",
          "110330.937000",
          "110333.437000",
          "110335.937000",
          "110338.937000",
          "110341.437000",
          "110343.937000",
          "110346.437000",
          "110348.937000",
          "110351.937000",
          "110354.437000",
          "110356.937000",
          "110359.437000",
          "110401.937000",
          "110404.937000",
          "110407.437000",
          "110409.937000",
          "110412.437000",
          "110414.937000",
          "110417.937000",
          "110420.437000",
          "110422.937000",
          "110425.437000",
          "110427.937000",
          "110430.937000",
          "110433.437000",
          "110440.671000"
        ],
        "InstanceCreationTime": [
          "105812.937000",
          "105813.437000",
          "105813.937000",
          "105816.437000",
          "105818.937000",
          "105821.437000",
          "105823.937000",
          "105826.937000",
          "105829.437000",
          "105831.937000",
          "105834.437000",
          "105836.937000",
          "105839.937000",
          "105842.437000",
          "105844.937000",
          "105847.437000",
          "105849.937000",
          "105852.937000",
          "105855.437000",
          "105857.937000",
          "105900.437000",
          "105902.937000",
          "105905.937000",
          "105908.437000",
          "105910.937000",
          "105913.437000",
          "105915.937000",
          "105918.937000",
          "105921.437000",
          "105923.937000",
          "105926.437000",
          "105928.937000",
          "105931.937000",
          "105934.437000",
          "105936.937000",
          "105939.437000",
          "105941.937000",
          "105944.937000",
          "105947.437000",
          "105949.937000",
          "105952.437000",
          "105954.937000",
          "105957.937000",
          "110000.437000",
          "110002.937000",
          "110005.437000",
          "110007.937000",
          "110010.937000",
          "110013.437000",
          "110015.937000",
          "110018.437000",
          "110020.937000",
          "110023.937000",
          "110026.437000",
          "110028.937000",
          "110031.437000",
          "110033.937000",
          "110036.937000",
          "110039.437000",
          "110041.937000",
          "110044.437000",
          "110046.937000",
          "110049.937000",
          "110052.437000",
          "110054.937000",
          "110057.437000",
          "110059.937000",
          "110102.937000",
          "110105.437000",
          "110107.937000",
          "110110.437000",
          "110112.937000",
          "110115.937000",
          "110118.437000",
          "110120.937000",
          "110123.437000",
          "110125.937000",
          "110128.937000",
          "110131.437000",
          "110133.937000",
          "110136.437000",
          "110138.937000",
          "110141.937000",
          "110144.437000",
          "110146.937000",
          "110149.437000",
          "110151.937000",
          "110154.937000",
          "110157.437000",
          "110159.937000",
          "110202.437000",
          "110204.937000",
          "110207.937000",
          "110210.437000",
          "110212.937000",
          "110215.437000",
          "110217.937000",
          "110220.937000",
          "110223.437000",
          "110225.937000",
          "110228.437000",
          "110230.937000",
          "110233.937000",
          "110236.437000",
          "110238.937000",
          "110241.437000",
          "110243.937000",
          "110246.937000",
          "110249.437000",
          "110251.937000",
          "110254.437000",
          "110256.937000",
          "110259.937000",
          "110302.437000",
          "110304.937000",
          "110307.437000",
          "110309.937000",
          "110312.937000",
          "110315.437000",
          "110317.937000",
          "110320.437000",
          "110322.937000",
          "110325.937000",
          "110328.437000",
          "110330.937000",
          "110333.437000",
          "110335.937000",
          "110338.937000",
          "110341.437000",
          "110343.937000",
          "110346.437000",
          "110348.937000",
          "110351.937000",
          "110354.437000",
          "110356.937000",
          "110359.437000",
          "110401.937000",
          "110404.937000",
          "110407.437000",
          "110409.937000",
          "110412.437000",
          "110414.937000",
          "110417.937000",
          "110420.437000",
          "110422.937000",
          "110425.437000",
          "110427.937000",
          "110430.937000",
          "110433.437000",
          "110440.671000"
        ],
        "InstanceNumber": [
          1,
          2,
          3,
          4,
          5,
          6,
          7,
          8,
          9,
          10,
          11,
          12,
          13,
          14,
          15,
          16,
          17,
          18,
          19,
          20,
          21,
          22,
          23,
          24,
          25,
          26,
          27,
          28,
          29,
          30,
          31,
          32,
          33,
          34,
          35,
          36,
          37,
          38,
          39,
          40,
          41,
          42,
          43,
          44,
          45,
          46,
          47,
          48,
          49,
          50,
          51,
          52,
          53,
          54,
          55,
          56,
          57,
          58,
          59,
          60,
          61,
          62,
          63,
          64,
          65,
          66,
          67,
          68,
          69,
          70,
          71,
          72,
          73,
          74,
          75,
          76,
          77,
          78,
          79,
          80,
          81,
          82,
          83,
          84,
          85,
          86,
          87,
          88,
          89,
          90,
          91,
          92,
          93,
          94,
          95,
          96,
          97,
          98,
          99,
          100,
          101,
          102,
          103,
          104,
          105,
          106,
          107,
          108,
          109,
          110,
          111,
          112,
          113,
          114,
          115,
          116,
          117,
          118,
          119,
          120,
          121,
          122,
          123,
          124,
          125,
          126,
          127,
          128,
          129,
          130,
          131,
          132,
          133,
          134,
          135,
          136,
          137,
          138,
          139,
          140,
          141,
          142,
          143,
          144,
          145,
          146,
          147,
          148,
          149,
          150
        ],
        "WindowCenter": [
          819.0,
          817.0,
          817.0,
          817.0,
          817.0,
          817.0,
          817.0,
          817.0,
          819.0,
          820.0,
          819.0,
          817.0,
          816.0,
          817.0,
          819.0,
          820.0,
          821.0,
          821.0,
          820.0,
          820.0,
          819.0,
          819.0,
          819.0,
          819.0,
          819.0,
          819.0,
          819.0,
          819.0,
          819.0,
          819.0,
          820.0,
          820.0,
          817.0,
          816.0,
          817.0,
          817.0,
          817.0,
          816.0,
          817.0,
          818.0,
          817.0,
          818.0,
          817.0,
          817.0,
          818.0,
          818.0,
          817.0,
          818.0,
          818.0,
          819.0,
          821.0,
          820.0,
          817.0,
          817.0,
          818.0,
          819.0,
          818.0,
          816.0,
          817.0,
          818.0,
          818.0,
          819.0,
          819.0,
          820.0,
          819.0,
          819.0,
          820.0,
          819.0,
          818.0,
          819.0,
          821.0,
          821.0,
          820.0,
          819.0,
          819.0,
          821.0,
          821.0,
          820.0,
          819.0,
          820.0,
          821.0,
          820.0,
          818.0,
          819.0,
          819.0,
          819.0,
          819.0,
          820.0,
          820.0,
          819.0,
          819.0,
          818.0,
          819.0,
          820.0,
          820.0,
          821.0,
          821.0,
          820.0,
          818.0,
          819.0,
          819.0,
          819.0,
          818.0,
          818.0,
          820.0,
          820.0,
          819.0,
          819.0,
          820.0,
          821.0,
          820.0,
          818.0,
          818.0,
          817.0,
          818.0,
          819.0,
          820.0,
          818.0,
          817.0,
          819.0,
          820.0,
          819.0,
          820.0,
          820.0,
          820.0,
          820.0,
          820.0,
          820.0,
          820.0,
          818.0,
          819.0,
          820.0,
          819.0,
          818.0,
          820.0,
          820.0,
          820.0,
          820.0,
          820.0,
          820.0,
          819.0,
          820.0,
          821.0,
          821.0,
          821.0,
          820.0,
          819.0,
          820.0,
          821.0,
          820.0
        ],
        "WindowWidth": [
          1813.0,
          1806.0,
          1805.0,
          1806.0,
          1806.0,
          1807.0,
          1808.0,
          1806.0,
          1812.0,
          1815.0,
          1814.0,
          1805.0,
          1802.0,
          1808.0,
          1814.0,
          1816.0,
          1818.0,
          1818.0,
          1814.0,
          1815.0,
          1813.0,
          1812.0,
          1812.0,
          1813.0,
          1812.0,
          1812.0,
          1814.0,
          1813.0,
          1812.0,
          1813.0,
          1817.0,
          1814.0,
          1806.0,
          1802.0,
          1805.0,
          1806.0,
          1806.0,
          1803.0,
          1807.0,
          1808.0,
          1806.0,
          1808.0,
          1808.0,
          1808.0,
          1809.0,
          1809.0,
          1808.0,
          1809.0,
          1810.0,
          1814.0,
          1820.0,
          1815.0,
          1805.0,
          1807.0,
          1809.0,
          1812.0,
          1809.0,
          1804.0,
          1807.0,
          1809.0,
          1808.0,
          1812.0,
          1814.0,
          1815.0,
          1813.0,
          1814.0,
          1815.0,
          1813.0,
          1810.0,
          1813.0,
          1818.0,
          1817.0,
          1814.0,
          1811.0,
          1812.0,
          1819.0,
          1816.0,
          1815.0,
          1812.0,
          1815.0,
          1818.0,
          1813.0,
          1810.0,
          1812.0,
          1811.0,
          1812.0,
          1813.0,
          1815.0,
          1813.0,
          1810.0,
          1811.0,
          1809.0,
          1811.0,
          1815.0,
          1816.0,
          1820.0,
          1819.0,
          1814.0,
          1808.0,
          1812.0,
          1811.0,
          1811.0,
          1809.0,
          1809.0,
          1814.0,
          1815.0,
          1812.0,
          1811.0,
          1815.0,
          1817.0,
          1814.0,
          1810.0,
          1808.0,
          1807.0,
          1808.0,
          1812.0,
          1815.0,
          1809.0,
          1806.0,
          1813.0,
          1815.0,
          1813.0,
          1814.0,
          1814.0,
          1815.0,
          1815.0,
          1816.0,
          1816.0,
          1814.0,
          1810.0,
          1813.0,
          1815.0,
          1813.0,
          1810.0,
          1815.0,
          1815.0,
          1815.0,
          1814.0,
          1817.0,
          1816.0,
          1813.0,
          1817.0,
          1817.0,
          1817.0,
          1817.0,
          1815.0,
          1814.0,
          1816.0,
          1817.0,
          1817.0
        ]
      },
      "slices": {}
    }
  },
  "dummy_trs": 0,
  "dvars_nstd": 77.28768096530203,
  "dvars_std": 1.0604946293288589,
  "dvars_vstd": 1.0127607126174503,
  "efc": 0.5866140038391223,
  "fber": 226.4310302734375,
  "fd_mean": 0.0640807888001828,
  "fd_num": 0,
  "fd_perc": 0.0,
  "fwhm_avg": 2.9589317365304404,
  "fwhm_x": 2.5825814398158005,
  "fwhm_y": 2.9736396750441947,
  "fwhm_z": 3.3205740947313265,
  "gcor": 0.00221348,
  "gsr_x": -0.017515622079372406,
  "gsr_y": 0.06298676878213882,
  "provenance": {
    "md5sum": "be143b8ec383ebe55eb0a14f9330f26e",
    "settings": {
      "fd_thres": 0.2,
      "testing": false
    },
    "software": "mriqc",
    "version": "22.0.6",
    "webapi_port": null,
    "webapi_url": "https://mriqc.nimh.nih.gov/api/v1"
  },
  "size_t": 150,
  "size_x": 188,
  "size_y": 188,
  "size_z": 46,
  "snr": 2.0397287074256387,
  "spacing_tr": 2.5999999046325684,
  "spacing_x": 1.0957447290420532,
  "spacing_y": 1.0957447290420532,
  "spacing_z": 1.0999995470046997,
  "summary_bg_k": 35.332660787358385,
  "summary_bg_mad": 28.594455089214236,
  "summary_bg_mean": 78.26763916015625,
  "summary_bg_median": 50.84000015258789,
  "summary_bg_n": 995805.0,
  "summary_bg_p05": 27.82000160217285,
  "summary_bg_p95": 219.7866668701172,
