{
  "aor": 0.0006337333333333333,
  "aqi": 0.014948259333333335,
  "bids_meta": {
    "AcquisitionMatrixPE": 188,
    "AcquisitionNumber": 1,
    "AcquisitionTime": "09:58:51.007500",
    "BandwidthPerPixelPhaseEncode": 19.46,
    "BaseResolution": 188,
    "CogAtlasID": "TODO",
    "ConversionSoftware": "dcm2niix",
    "ConversionSoftwareVersion": "v1.0.20180606 GCC4.8.5",
    "DelayTime": 1.2,
    "DerivedVendorReportedEchoSpacing": 0.000820013,
    "DeviceSerialNumber": "18930",
    "DwellTime": 1.9e-06,
    "EchoTime": 0.02,
    "EffectiveEchoSpacing": 0.000273338,
    "FlipAngle": 80,
    "ImageComments": "Unaliased_MB2_PE2",
    "ImageOrientationPatientDICOM": [
      0.996737,
      0.0336715,
      -0.0733541,
      -0.080142,
      0.304957,
      -0.948988
    ],
    "ImageType": [
      "ORIGINAL",
      "PRIMARY",
      "M",
      "MB",
      "ND",
      "MOSAIC"
    ],
    "InPlanePhaseEncodingDirectionDICOM": "COL",
    "InstitutionAddress": "Oxfordlaan_55_Maastricht_22AAA2_Limburg_NL_6229_EV",
    "InstitutionName": "Scannexus",
    "InstitutionalDepartmentName": "MRI_7T",
    "MRAcquisitionType": "2D",
    "MagneticFieldStrength": 6.98,
    "Manufacturer": "Siemens",
    "ManufacturersModelName": "Investigational_Device_7T",
    "Modality": "MR",
    "MultibandAccelerationFactor": 2,
    "ParallelReductionFactorInPlane": 3,
    "PartialFourier": 0.75,
    "PatientPosition": "HFS",
    "PercentPhaseFOV": 100,
    "PhaseEncodingDirection": "j",
    "PhaseEncodingSteps": 141,
    "PhaseResolution": 1,
    "PixelBandwidth": 1400,
    "ProcedureStepDescription": "FeDem_Faruk",
    "ProtocolName": "cmrr_mbep2d_bold_AP_run5",
    "PulseSequenceDetails": "%CustomerSeq%_cmrr_mbep2d_bold",
    "ReceiveCoilName": "32Ch_Head_7T",
    "ReconMatrixPE": 188,
    "RepetitionTime": 2.6,
    "SAR": 0.0537567,
    "ScanOptions": "PFP_FS",
    "ScanningSequence": "EP",
    "SequenceName": "epfid2d1_188",
    "SequenceVariant": "SK_SS",
    "SeriesDescription": "cmrr_mbep2d_bold_AP_run5",
    "SeriesNumber": 15,
    "ShimSetting": [
      15,
      -215,
      478,
      327,
      -91,
      -137,
      182,
      154
    ],
    "SliceThickness": 1.1,
    "SliceTiming": [
      0,
      0.7325,
      0.06,
      0.7925,
      0.1225,
      0.855,
      0.1825,
      0.915,
      0.2425,
      0.9775,
      0.305,
      1.0375,
      0.365,
      1.1,
      0.4275,
      1.16,
      0.4875,
      1.22,
      0.55,
      1.2825,
      0.61,
      1.3425,
      0.6725,
      0,
      0.7325,
      0.06,
      0.7925,
      0.1225,
      0.855,
      0.1825,
      0.915,
      0.2425,
      0.9775,
      0.305,
      1.0375,
      0.365,
      1.1,
      0.4275,
      1.16,
      0.4875,
      1.22,
      0.55,
      1.2825,
      0.61,
      1.3425,
      0.6725
    ],
    "SoftwareVersions": "syngo_MR_B17",
    "SpacingBetweenSlices": 1.1,
    "StationName": "MRC18930",
    "TaskName": "auditory",
    "TotalReadoutTime": 0.0511141,
    "TxRefAmp": 195,
    "dataset": "ds001942",
    "dcmmeta_affine": [
      [
        -1.0921697616577148,
        -0.08781520277261734,
        0.010542330332100391,
        107.87574005126953
      ],
      [
        -0.03689532354474068,
        0.33415523171424866,
        -1.0469472408294678,
        20.20245361328125
      ],
      [
        -0.08037740737199783,
        1.0398486852645874,
        0.33732667565345764,
        -111.89634704589844
      ],
      [
        0.0,
        0.0,
        0.0,
        1.0
      ]
    ],
    "dcmmeta_reorient_transform": [
      [
        0.0,
        -1.0,
        0.0,
        187.0
      ],
      [
        1.0,
        0.0,
        0.0,
        0.0
      ],
      [
        0.0,
        0.0,
        1.0,
        0.0
      ],
      [
        0.0,
        0.0,
        0.0,
        1.0
      ]
    ],
    "dcmmeta_shape": [
      188,
      188,
      46,
      150
    ],
    "dcmmeta_slice_dim": 2,
    "dcmmeta_version": 0.6,
    "global": {
      "const": {
        "AcquisitionMatrix": [
          188,
          0,
          0,
          188
        ],
        "AngioFlag": "N",
        "BitsAllocated": 16,
        "BitsStored": 12,
        "Columns": 1316,
        "EchoNumbers": 1,
        "EchoTime": 20.0,
        "EchoTrainLength": 1,
        "FlipAngle": 80.0,
        "HighBit": 11,
        "ImageOrientationPatient": [
          0.99673737947879,
          0.03367145757805,
          -0.0733541361774,
          -0.0801420266192,
          0.3049571876327,
          -0.9489880764691
        ],
        "ImagePositionPatient": [
          -657.910247797,
          -291.96199391522,
          714.36287235052
        ],
        "ImageType": [
          "ORIGINAL",
          "PRIMARY",
          "M",
          "MB",
          "ND",
          "MOSAIC"
        ],
        "ImagedNucleus": "1H",
        "ImagingFrequency": 297.205581,
        "InPlanePhaseEncodingDirection": "COL",
        "LargestImagePixelValue": 4095,
        "MRAcquisitionType": "2D",
        "MagneticFieldStrength": 6.98,
        "Manufacturer": "SIEMENS",
        "ManufacturerModelName": "Investigational_Device_7T",
        "Modality": "MR",
        "NumberOfAverages": 1.0,
        "NumberOfPhaseEncodingSteps": 141,
        "PercentPhaseFieldOfView": 100.0,
        "PercentSampling": 100.0,
        "PerformedProcedureStepStartTime": "085813.937000",
        "PhotometricInterpretation": "MONOCHROME2",
        "PixelBandwidth": 1400.0,
        "PixelRepresentation": 0,
        "PixelSpacing": [
          1.0957447290421,
          1.0957447290421
        ],
        "ProtocolName": "cmrr_mbep2d_bold_AP_run5",
        "RepetitionTime": 2600.0,
        "Rows": 1316,
        "SAR": 0.05375671586146,
        "SamplesPerPixel": 1,
        "ScanOptions": [
          "PFP",
          "FS"
        ],
        "ScanningSequence": "EP",
        "SequenceName": "epfid2d1_188",
        "SequenceVariant": [
          "SK",
          "SS"
        ],
        "SeriesDescription": "cmrr_mbep2d_bold_AP_run5",
        "SeriesNumber": 15,
        "SeriesTime": "095859.390000",
        "SliceLocation": -52.508442610931,
        "SliceThickness": 1.1000000238419,
        "SmallestImagePixelValue": 0,
        "SoftwareVersions": "syngo MR B17",
        "SpacingBetweenSlices": 1.0999995674712,
        "SpecificCharacterSet": "ISO_IR 100",
        "StudyID": "1",
        "StudyTime": "085813.875000",
        "TransmitCoilName": "32Ch_Head_7T",
        "VariableFlipAngleFlag": "N",
        "WindowCenterWidthExplanation": "Algo1",
        "dBdt": 0.0
      },
      "slices": {}
    },
    "modality": "bold",
    "run_id": 5,
    "session_id": "SES02",
    "subject_id": "S06",
    "task_id": "auditory",
    "time": {
      "samples": {
        "AcquisitionNumber": [
          1,
          2,
          3,
          4,
          5,
          6,
          7,
          8,
          9,
          10,
          11,
          12,
          13,
          14,
          15,
          16,
          17,
          18,
          19,
          20,
          21,
          22,
          23,
          24,
          25,
          26,
          27,
          28,
          29,
          30,
          31,
          32,
          33,
          34,
          35,
          36,
          37,
          38,
          39,
          40,
          41,
          42,
          43,
          44,
          45,
          46,
          47,
          48,
          49,
          50,
          51,
          52,
          53,
          54,
          55,
          56,
          57,
          58,
          59,
          60,
          61,
          62,
          63,
          64,
          65,
          66,
          67,
          68,
          69,
          70,
          71,
          72,
          73,
          74,
          75,
          76,
          77,
          78,
          79,
          80,
          81,
          82,
          83,
          84,
          85,
          86,
          87,
          88,
          89,
          90,
          91,
          92,
          93,
          94,
          95,
          96,
          97,
          98,
          99,
          100,
          101,
          102,
          103,
          104,
          105,
          106,
          107,
          108,
          109,
          110,
          111,
          112,
          113,
          114,
          115,
          116,
          117,
          118,
          119,
          120,
          121,
          122,
          123,
          124,
          125,
          126,
          127,
          128,
          129,
          130,
          131,
          132,
          133,
          134,
          135,
          136,
          137,
          138,
          139,
          140,
          141,
          142,
          143,
          144,
          145,
          146,
          147,
          148,
          149,
          150
        ],
        "AcquisitionTime": [
          "095851.007500",
          "095853.617500",
          "095856.227500",
          "095858.837500",
          "095901.447500",
          "095904.060000",
          "095906.670000",
          "095909.280000",
          "095911.890000",
          "095914.500000",
          "095917.110000",
          "095919.722500",
          "095922.332500",
          "095924.942500",
          "095927.552500",
          "095930.162500",
          "095932.772500",
          "095935.385000",
          "095937.995000",
          "095940.605000",
          "095943.215000",
          "095945.825000",
          "095948.437500",
          "095951.047500",
          "095953.657500",
          "095956.267500",
          "095958.877500",
          "100001.487500",
          "100004.100000",
          "100006.710000",
          "100009.320000",
          "100011.930000",
          "100014.540000",
          "100017.150000",
          "100019.762500",
          "100022.372500",
          "100024.982500",
          "100027.592500",
          "100030.202500",
          "100032.815000",
          "100035.425000",
          "100038.035000",
          "100040.645000",
          "100043.255000",
          "100045.865000",
          "100048.477500",
          "100051.087500",
          "100053.697500",
          "100056.307500",
          "100058.917500",
          "100101.527500",
          "100104.140000",
          "100106.750000",
          "100109.360000",
          "100111.970000",
          "100114.580000",
          "100117.192500",
          "100119.802500",
          "100122.412500",
          "100125.022500",
          "100127.632500",
          "100130.242500",
          "100132.855000",
          "100135.465000",
          "100138.075000",
          "100140.685000",
          "100143.295000",
          "100145.905000",
          "100148.517500",
          "100151.127500",
          "100153.737500",
          "100156.347500",
          "100158.957500",
          "100201.570000",
          "100204.180000",
          "100206.790000",
          "100209.400000",
          "100212.010000",
          "100214.620000",
          "100217.232500",
          "100219.842500",
          "100222.452500",
          "100225.062500",
          "100227.672500",
          "100230.285000",
          "100232.895000",
          "100235.505000",
          "100238.115000",
          "100240.725000",
          "100243.335000",
          "100245.947500",
          "100248.557500",
          "100251.167500",
          "100253.777500",
          "100256.387500",
          "100258.997500",
          "100301.610000",
          "100304.220000",
          "100306.830000",
          "100309.440000",
          "100312.050000",
          "100314.662500",
          "100317.272500",
          "100319.882500",
          "100322.492500",
          "100325.102500",
          "100327.712500",
          "100330.325000",
          "100332.935000",
          "100335.545000",
          "100338.155000",
          "100340.765000",
          "100343.375000",
          "100345.987500",
          "100348.597500",
          "100351.207500",
          "100353.817500",
          "100356.427500",
          "100359.040000",
          "100401.650000",
          "100404.260000",
          "100406.870000",
          "100409.480000",
          "100412.090000",
          "100414.702500",
          "100417.312500",
          "100419.922500",
          "100422.532500",
          "100425.142500",
          "100427.752500",
          "100430.365000",
          "100432.975000",
          "100435.585000",
          "100438.195000",
          "100440.805000",
          "100443.417500",
          "100446.027500",
          "100448.637500",
          "100451.247500",
          "100453.857500",
          "100456.467500",
          "100459.080000",
          "100501.690000",
          "100504.300000",
          "100506.910000",
          "100509.520000",
          "100512.130000",
          "100514.742500",
          "100517.352500",
          "100519.962500"
        ],
        "ContentTime": [
          "095859.390000",
          "095859.890000",
          "095900.390000",
          "095902.890000",
          "095905.390000",
          "095907.890000",
          "095910.390000",
          "095913.390000",
          "095915.890000",
          "095918.390000",
          "095920.890000",
          "095923.390000",
          "095926.390000",
          "095928.890000",
          "095931.390000",
          "095933.890000",
          "095936.390000",
          "095939.390000",
          "095941.890000",
          "095944.390000",
          "095946.890000",
          "095949.390000",
          "095952.390000",
          "095954.890000",
          "095957.390000",
          "095959.890000",
          "100002.390000",
          "100005.390000",
          "100007.890000",
          "100010.390000",
          "100012.890000",
          "100015.390000",
          "100018.390000",
          "100020.890000",
          "100023.390000",
          "100025.890000",
          "100028.390000",
          "100031.390000",
          "100033.890000",
          "100036.390000",
          "100038.890000",
          "100041.390000",
          "100044.390000",
          "100046.890000",
          "100049.390000",
          "100051.890000",
          "100054.390000",
          "100057.390000",
          "100059.890000",
          "100102.390000",
          "100104.890000",
          "100107.390000",
          "100110.390000",
          "100112.890000",
          "100115.390000",
          "100117.890000",
          "100120.390000",
          "100123.390000",
          "100125.890000",
          "100128.390000",
          "100130.890000",
          "100133.390000",
          "100136.390000",
          "100138.890000",
          "100141.390000",
          "100143.890000",
          "100146.390000",
          "100149.390000",
          "100151.890000",
          "100154.390000",
          "100156.890000",
          "100159.390000",
          "100202.390000",
          "100204.890000",
          "100207.390000",
          "100209.890000",
          "100212.390000",
          "100215.390000",
          "100217.890000",
          "100220.390000",
          "100222.890000",
          "100225.390000",
          "100228.390000",
          "100230.890000",
          "100233.390000",
          "100235.890000",
          "100238.390000",
          "100241.390000",
          "100243.890000",
          "100246.390000",
          "100248.890000",
          "100251.390000",
          "100254.390000",
          "100256.890000",
          "100259.390000",
          "100301.890000",
          "100304.390000",
          "100307.390000",
          "100309.890000",
          "100312.390000",
          "100314.890000",
          "100317.390000",
          "100320.390000",
          "100322.890000",
          "100325.390000",
          "100327.890000",
          "100330.390000",
          "100333.390000",
          "100335.890000",
          "100338.390000",
          "100340.890000",
          "100343.390000",
          "100346.390000",
          "100348.890000",
          "100351.390000",
          "100353.890000",
          "100356.390000",
          "100359.390000",
          "100401.890000",
          "100404.390000",
          "100406.890000",
          "100409.390000",
          "100412.390000",
          "100414.890000",
          "100417.390000",
          "100419.890000",
          "100422.390000",
          "100425.390000",
          "100427.890000",
          "100430.390000",
          "100432.890000",
          "100435.390000",
          "100438.390000",
          "100440.890000",
          "100443.390000",
          "100445.890000",
          "100448.390000",
          "100451.390000",
          "100453.890000",
          "100456.390000",
          "100458.890000",
          "100501.390000",
          "100504.390000",
          "100506.890000",
          "100509.390000",
          "100511.890000",
          "100514.390000",
          "100517.390000",
          "100519.890000",
          "100527.093000"
        ],
        "InstanceCreationTime": [
          "095859.390000",
          "095859.890000",
          "095900.390000",
          "095902.890000",
          "095905.390000",
          "095907.890000",
          "095910.390000",
          "095913.390000",
          "095915.890000",
          "095918.390000",
          "095920.890000",
          "095923.390000",
          "095926.390000",
          "095928.890000",
          "095931.390000",
          "095933.890000",
          "095936.390000",
          "095939.390000",
          "095941.890000",
          "095944.390000",
          "095946.890000",
          "095949.390000",
          "095952.390000",
          "095954.890000",
          "095957.390000",
          "095959.890000",
          "100002.390000",
          "100005.390000",
          "100007.890000",
          "100010.390000",
          "100012.890000",
          "100015.390000",
          "100018.390000",
          "100020.890000",
          "100023.390000",
          "100025.890000",
          "100028.390000",
          "100031.390000",
          "100033.890000",
          "100036.390000",
          "100038.890000",
          "100041.390000",
          "100044.390000",
          "100046.890000",
          "100049.390000",
          "100051.890000",
          "100054.390000",
          "100057.390000",
          "100059.890000",
          "100102.390000",
          "100104.890000",
          "100107.390000",
          "100110.390000",
          "100112.890000",
          "100115.390000",
          "100117.890000",
          "100120.390000",
          "100123.390000",
          "100125.890000",
          "100128.390000",
          "100130.890000",
          "100133.390000",
          "100136.390000",
          "100138.890000",
          "100141.390000",
          "100143.890000",
          "100146.390000",
          "100149.390000",
          "100151.890000",
          "100154.390000",
          "100156.890000",
          "100159.390000",
          "100202.390000",
          "100204.890000",
          "100207.390000",
          "100209.890000",
          "100212.390000",
          "100215.390000",
          "100217.890000",
          "100220.390000",
          "100222.890000",
          "100225.390000",
          "100228.390000",
          "100230.890000",
          "100233.390000",
          "100235.890000",
          "100238.390000",
          "100241.390000",
          "100243.890000",
          "100246.390000",
          "100248.890000",
          "100251.390000",
          "100254.390000",
          "100256.890000",
          "100259.390000",
          "100301.890000",
          "100304.390000",
          "100307.390000",
          "100309.890000",
          "100312.390000",
          "100314.890000",
          "100317.390000",
          "100320.390000",
          "100322.890000",
          "100325.390000",
          "100327.890000",
          "100330.390000",
          "100333.390000",
          "100335.890000",
          "100338.390000",
          "100340.890000",
          "100343.390000",
          "100346.390000",
          "100348.890000",
          "100351.390000",
          "100353.890000",
          "100356.390000",
          "100359.390000",
          "100401.890000",
          "100404.390000",
          "100406.890000",
          "100409.390000",
          "100412.390000",
          "100414.890000",
          "100417.390000",
          "100419.890000",
          "100422.390000",
          "100425.390000",
          "100427.890000",
          "100430.390000",
          "100432.890000",
          "100435.390000",
          "100438.390000",
          "100440.890000",
          "100443.390000",
          "100445.890000",
          "100448.390000",
          "100451.390000",
          "100453.890000",
          "100456.390000",
          "100458.890000",
          "100501.390000",
          "100504.390000",
          "100506.890000",
          "100509.390000",
          "100511.890000",
          "100514.390000",
          "100517.390000",
          "100519.890000",
          "100527.093000"
        ],
        "InstanceNumber": [
          1,
          2,
          3,
          4,
          5,
          6,
          7,
          8,
          9,
          10,
          11,
          12,
          13,
          14,
          15,
          16,
          17,
          18,
          19,
          20,
          21,
          22,
          23,
          24,
          25,
          26,
          27,
          28,
          29,
          30,
          31,
          32,
          33,
          34,
          35,
          36,
          37,
          38,
          39,
          40,
          41,
          42,
          43,
          44,
          45,
          46,
          47,
          48,
          49,
          50,
          51,
          52,
          53,
          54,
          55,
          56,
          57,
          58,
          59,
          60,
          61,
          62,
          63,
          64,
          65,
          66,
          67,
          68,
          69,
          70,
          71,
          72,
          73,
          74,
          75,
          76,
          77,
          78,
          79,
          80,
          81,
          82,
          83,
          84,
          85,
          86,
          87,
          88,
          89,
          90,
          91,
          92,
          93,
          94,
          95,
          96,
          97,
          98,
          99,
          100,
          101,
          102,
          103,
          104,
          105,
          106,
          107,
          108,
          109,
          110,
          111,
          112,
          113,
          114,
          115,
          116,
          117,
          118,
          119,
          120,
          121,
          122,
          123,
          124,
          125,
          126,
          127,
          128,
          129,
          130,
          131,
          132,
          133,
          134,
          135,
          136,
          137,
          138,
          139,
          140,
          141,
          142,
          143,
          144,
          145,
          146,
          147,
          148,
          149,
          150
        ],
        "WindowCenter": [
          820.0,
          818.0,
          818.0,
          818.0,
          819.0,
          818.0,
          818.0,
          819.0,
          819.0,
          820.0,
          820.0,
          821.0,
          821.0,
          821.0,
          821.0,
          822.0,
          824.0,
          822.0,
          821.0,
          822.0,
          823.0,
          822.0,
          821.0,
          820.0,
          819.0,
          820.0,
          820.0,
          820.0,
          821.0,
          822.0,
          821.0,
          821.0,
          822.0,
          823.0,
          822.0,
          822.0,
          822.0,
          821.0,
          821.0,
          821.0,
          822.0,
          822.0,
          820.0,
          821.0,
          821.0,
          821.0,
          822.0,
          823.0,
          825.0,
          823.0,
          821.0,
          820.0,
          819.0,
          819.0,
          820.0,
          820.0,
          821.0,
          824.0,
          823.0,
          821.0,
          821.0,
          820.0,
          821.0,
          823.0,
          823.0,
          821.0,
          820.0,
          822.0,
          825.0,
          825.0,
          822.0,
          821.0,
          820.0,
          820.0,
          820.0,
          820.0,
          821.0,
          820.0,
          819.0,
          820.0,
          820.0,
          820.0,
          820.0,
          822.0,
          822.0,
          822.0,
          822.0,
          821.0,
          820.0,
          822.0,
          825.0,
          824.0,
          822.0,
          821.0,
          821.0,
          820.0,
          819.0,
          819.0,
          821.0,
          823.0,
          826.0,
          824.0,
          821.0,
          819.0,
          818.0,
          820.0,
          821.0,
          820.0,
          818.0,
          819.0,
          822.0,
          821.0,
          820.0,
          820.0,
          820.0,
          820.0,
          821.0,
          821.0,
          822.0,
          822.0,
          822.0,
          822.0,
          822.0,
          822.0,
          821.0,
          820.0,
          820.0,
          820.0,
          821.0,
          824.0,
          822.0,
          820.0,
          818.0,
          818.0,
          817.0,
          818.0,
          820.0,
          821.0,
          820.0,
          819.0,
          819.0,
          819.0,
          821.0,
          820.0,
          819.0,
          819.0,
          819.0,
          820.0,
          823.0,
          823.0
        ],
        "WindowWidth": [
          1811.0,
          1807.0,
          1807.0,
          1808.0,
          1810.0,
          1806.0,
          1807.0,
          1809.0,
          1810.0,
          1812.0,
          1813.0,
          1816.0,
          1817.0,
          1817.0,
          1817.0,
          1820.0,
          1825.0,
          1820.0,
          1817.0,
          1819.0,
          1823.0,
          1820.0,
          1815.0,
          1811.0,
          1809.0,
          1812.0,
          1813.0,
          1812.0,
          1815.0,
          1818.0,
          1818.0,
          1817.0,
          1818.0,
          1821.0,
          1821.0,
          1820.0,
          1819.0,
          1816.0,
          1815.0,
          1815.0,
          1819.0,
          1819.0,
          1814.0,
          1815.0,
          1815.0,
          1817.0,
          1819.0,
          1824.0,
          1829.0,
          1823.0,
          1817.0,
          1812.0,
          1809.0,
          1810.0,
          1813.0,
          1813.0,
          1817.0,
          1825.0,
          1822.0,
          1815.0,
          1815.0,
          1814.0,
          1817.0,
          1824.0,
          1820.0,
          1814.0,
          1814.0,
          1821.0,
          1830.0,
          1829.0,
          1820.0,
          1815.0,
          1813.0,
          1814.0,
          1813.0,
          1813.0,
          1817.0,
          1814.0,
          1811.0,
          1813.0,
          1813.0,
          1814.0,
          1813.0,
          1821.0,
          1820.0,
          1818.0,
          1818.0,
          1815.0,
          1813.0,
          1818.0,
          1827.0,
          1823.0,
          1819.0,
          1815.0,
          1814.0,
          1813.0,
          1809.0,
          1811.0,
          1815.0,
          1823.0,
          1831.0,
          1825.0,
          1816.0,
          1809.0,
          1808.0,
          1813.0,
          1817.0,
          1812.0,
          1807.0,
          1812.0,
          1819.0,
          1816.0,
          1813.0,
          1813.0,
          1813.0,
          1814.0,
          1815.0,
          1816.0,
          1821.0,
          1819.0,
          1819.0,
          1820.0,
          1819.0,
          1817.0,
          1815.0,
          1813.0,
          1812.0,
          1813.0,
          1816.0,
          1824.0,
          1820.0,
          1813.0,
          1806.0,
          1805.0,
          1804.0,
          1806.0,
          1813.0,
          1815.0,
          1811.0,
          1810.0,
          1810.0,
          1811.0,
          1814.0,
          1813.0,
          1809.0,
          1808.0,
          1810.0,
          1812.0,
          1822.0,
          1822.0
        ]
      },
      "slices": {}
    }
  },
  "dummy_trs": 0,
  "dvars_nstd": 76.8062428722148,
  "dvars_std": 1.0522110232885906,
  "dvars_vstd": 1.010948197181208,
  "efc": 0.5880946273444604,
  "fber": 226.39617919921875,
  "fd_mean": 0.0679580092189552,
  "fd_num": 3,
  "fd_perc": 2.0,
  "fwhm_avg": 2.914393447992597,
  "fwhm_x": 2.5547829944364375,
  "fwhm_y": 2.924750550980752,
  "fwhm_z": 3.2636467985606012,
  "gcor": 0.00369307,
  "gsr_x": -0.04510065168142319,
  "gsr_y": 0.08458200842142105,
  "provenance": {
    "md5sum": "ede76277578d6c0c0febaa5df7c7ec53",
    "settings": {
      "fd_thres": 0.2,
      "testing": false
    },
    "software": "mriqc",
    "version": "22.0.6",
    "webapi_port": null,
    "webapi_url": "https://mriqc.nimh.nih.gov/api/v1"
  },
  "size_t": 150,
  "size_x": 188,
  "size_y": 188,
  "size_z": 46,
  "snr": 2.0726610422717675,
  "spacing_tr": 2.5999999046325684,
  "spacing_x": 1.0957447290420532,
  "spacing_y": 1.0957447290420532,
  "spacing_z": 1.0999995470046997,
  "summary_bg_k": 23.080925175203788,
  "summary_bg_mad": 31.282910203875378,
  "summary_bg_mean": 88.03846740722656,
  "summary_bg_median": 52.546669006347656,
  "summary_bg_n": 1021584.0,
  "summary_bg_p05": 27.866666793823242,
  "summary_bg_p95": 270.90467681884735,
