{
  "aor": 0.0011235333333333335,
  "aqi": 0.0164639,
  "bids_meta": {
    "AcquisitionMatrixPE": 188,
    "AcquisitionNumber": 1,
    "AcquisitionTime": "09:43:0.025000",
    "BandwidthPerPixelPhaseEncode": 19.46,
    "BaseResolution": 188,
    "CogAtlasID": "TODO",
    "ConversionSoftware": "dcm2niix",
    "ConversionSoftwareVersion": "v1.0.20180606 GCC4.8.5",
    "DelayTime": 1.2,
    "DerivedVendorReportedEchoSpacing": 0.000820013,
    "DeviceSerialNumber": "18930",
    "DwellTime": 1.9e-06,
    "EchoTime": 0.02,
    "EffectiveEchoSpacing": 0.000273338,
    "FlipAngle": 80,
    "ImageComments": "Unaliased_MB2_PE2",
    "ImageOrientationPatientDICOM": [
      0.996737,
      0.0336715,
      -0.0733541,
      -0.080142,
      0.304957,
      -0.948988
    ],
    "ImageType": [
      "ORIGINAL",
      "PRIMARY",
      "M",
      "MB",
      "ND",
      "MOSAIC"
    ],
    "InPlanePhaseEncodingDirectionDICOM": "COL",
    "InstitutionAddress": "Oxfordlaan_55_Maastricht_22AAA2_Limburg_NL_6229_EV",
    "InstitutionName": "Scannexus",
    "InstitutionalDepartmentName": "MRI_7T",
    "MRAcquisitionType": "2D",
    "MagneticFieldStrength": 6.98,
    "Manufacturer": "Siemens",
    "ManufacturersModelName": "Investigational_Device_7T",
    "Modality": "MR",
    "MultibandAccelerationFactor": 2,
    "ParallelReductionFactorInPlane": 3,
    "PartialFourier": 0.75,
    "PatientPosition": "HFS",
    "PercentPhaseFOV": 100,
    "PhaseEncodingDirection": "j",
    "PhaseEncodingSteps": 141,
    "PhaseResolution": 1,
    "PixelBandwidth": 1400,
    "ProcedureStepDescription": "FeDem_Faruk",
    "ProtocolName": "cmrr_mbep2d_bold_AP_run3",
    "PulseSequenceDetails": "%CustomerSeq%_cmrr_mbep2d_bold",
    "ReceiveCoilName": "32Ch_Head_7T",
    "ReconMatrixPE": 188,
    "RepetitionTime": 2.6,
    "SAR": 0.0537594,
    "ScanOptions": "PFP_FS",
    "ScanningSequence": "EP",
    "SequenceName": "epfid2d1_188",
    "SequenceVariant": "SK_SS",
    "SeriesDescription": "cmrr_mbep2d_bold_AP_run3",
    "SeriesNumber": 13,
    "ShimSetting": [
      15,
      -215,
      478,
      327,
      -91,
      -137,
      182,
      154
    ],
    "SliceThickness": 1.1,
    "SliceTiming": [
      0,
      0.735,
      0.0625,
      0.795,
      0.1225,
      0.855,
      0.185,
      0.9175,
      0.245,
      0.9775,
      0.305,
      1.04,
      0.3675,
      1.1,
      0.4275,
      1.1625,
      0.49,
      1.2225,
      0.55,
      1.285,
      0.6125,
      1.345,
      0.6725,
      0,
      0.735,
      0.0625,
      0.795,
      0.1225,
      0.855,
      0.185,
      0.9175,
      0.245,
      0.9775,
      0.305,
      1.04,
      0.3675,
      1.1,
      0.4275,
      1.1625,
      0.49,
      1.2225,
      0.55,
      1.285,
      0.6125,
      1.345,
      0.6725
    ],
    "SoftwareVersions": "syngo_MR_B17",
    "SpacingBetweenSlices": 1.1,
    "StationName": "MRC18930",
    "TaskName": "auditory",
    "TotalReadoutTime": 0.0511141,
    "TxRefAmp": 195,
    "dataset": "ds001942",
    "dcmmeta_affine": [
      [
        -1.0921697616577148,
        -0.08781520277261734,
        0.010542330332100391,
        107.87574005126953
      ],
      [
        -0.03689532354474068,
        0.33415523171424866,
        -1.0469472408294678,
        20.20245361328125
      ],
      [
        -0.08037740737199783,
        1.0398486852645874,
        0.33732667565345764,
        -111.89634704589844
      ],
      [
        0.0,
        0.0,
        0.0,
        1.0
      ]
    ],
    "dcmmeta_reorient_transform": [
      [
        0.0,
        -1.0,
        0.0,
        187.0
      ],
      [
        1.0,
        0.0,
        0.0,
        0.0
      ],
      [
        0.0,
        0.0,
        1.0,
        0.0
      ],
      [
        0.0,
        0.0,
        0.0,
        1.0
      ]
    ],
    "dcmmeta_shape": [
      188,
      188,
      46,
      150
    ],
    "dcmmeta_slice_dim": 2,
    "dcmmeta_version": 0.6,
    "global": {
      "const": {
        "AcquisitionMatrix": [
          188,
          0,
          0,
          188
        ],
        "AngioFlag": "N",
        "BitsAllocated": 16,
        "BitsStored": 12,
        "Columns": 1316,
        "EchoNumbers": 1,
        "EchoTime": 20.0,
        "EchoTrainLength": 1,
        "FlipAngle": 80.0,
        "HighBit": 11,
        "ImageOrientationPatient": [
          0.99673737947879,
          0.03367145757805,
          -0.0733541361774,
          -0.0801420266192,
          0.3049571876327,
          -0.9489880764691
        ],
        "ImagePositionPatient": [
          -657.910247797,
          -291.96199391522,
          714.36287235052
        ],
        "ImageType": [
          "ORIGINAL",
          "PRIMARY",
          "M",
          "MB",
          "ND",
          "MOSAIC"
        ],
        "ImagedNucleus": "1H",
        "ImagingFrequency": 297.205572,
        "InPlanePhaseEncodingDirection": "COL",
        "LargestImagePixelValue": 4095,
        "MRAcquisitionType": "2D",
        "MagneticFieldStrength": 6.98,
        "Manufacturer": "SIEMENS",
        "ManufacturerModelName": "Investigational_Device_7T",
        "Modality": "MR",
        "NumberOfAverages": 1.0,
        "NumberOfPhaseEncodingSteps": 141,
        "PercentPhaseFieldOfView": 100.0,
        "PercentSampling": 100.0,
        "PerformedProcedureStepStartTime": "085813.937000",
        "PhotometricInterpretation": "MONOCHROME2",
        "PixelBandwidth": 1400.0,
        "PixelRepresentation": 0,
        "PixelSpacing": [
          1.0957447290421,
          1.0957447290421
        ],
        "ProtocolName": "cmrr_mbep2d_bold_AP_run3",
        "RepetitionTime": 2600.0,
        "Rows": 1316,
        "SAR": 0.05375935998806,
        "SamplesPerPixel": 1,
        "ScanOptions": [
          "PFP",
          "FS"
        ],
        "ScanningSequence": "EP",
        "SequenceName": "epfid2d1_188",
        "SequenceVariant": [
          "SK",
          "SS"
        ],
        "SeriesDescription": "cmrr_mbep2d_bold_AP_run3",
        "SeriesNumber": 13,
        "SeriesTime": "094308.875000",
        "SliceLocation": -52.508442610931,
        "SliceThickness": 1.1000000238419,
        "SmallestImagePixelValue": 0,
        "SoftwareVersions": "syngo MR B17",
        "SpacingBetweenSlices": 1.0999995674712,
        "SpecificCharacterSet": "ISO_IR 100",
        "StudyID": "1",
        "StudyTime": "085813.875000",
        "TransmitCoilName": "32Ch_Head_7T",
        "VariableFlipAngleFlag": "N",
        "WindowCenterWidthExplanation": "Algo1",
        "dBdt": 0.0
      },
      "slices": {}
    },
    "modality": "bold",
    "run_id": 3,
    "session_id": "SES02",
    "subject_id": "S06",
    "task_id": "auditory",
    "time": {
      "samples": {
        "AcquisitionNumber": [
          1,
          2,
          3,
          4,
          5,
          6,
          7,
          8,
          9,
          10,
          11,
          12,
          13,
          14,
          15,
          16,
          17,
          18,
          19,
          20,
          21,
          22,
          23,
          24,
          25,
          26,
          27,
          28,
          29,
          30,
          31,
          32,
          33,
          34,
          35,
          36,
          37,
          38,
          39,
          40,
          41,
          42,
          43,
          44,
          45,
          46,
          47,
          48,
          49,
          50,
          51,
          52,
          53,
          54,
          55,
          56,
          57,
          58,
          59,
          60,
          61,
          62,
          63,
          64,
          65,
          66,
          67,
          68,
          69,
          70,
          71,
          72,
          73,
          74,
          75,
          76,
          77,
          78,
          79,
          80,
          81,
          82,
          83,
          84,
          85,
          86,
          87,
          88,
          89,
          90,
          91,
          92,
          93,
          94,
          95,
          96,
          97,
          98,
          99,
          100,
          101,
          102,
          103,
          104,
          105,
          106,
          107,
          108,
          109,
          110,
          111,
          112,
          113,
          114,
          115,
          116,
          117,
          118,
          119,
          120,
          121,
          122,
          123,
          124,
          125,
          126,
          127,
          128,
          129,
          130,
          131,
          132,
          133,
          134,
          135,
          136,
          137,
          138,
          139,
          140,
          141,
          142,
          143,
          144,
          145,
          146,
          147,
          148,
          149,
          150
        ],
        "AcquisitionTime": [
          "094300.025000",
          "094302.635000",
          "094305.247500",
          "094307.857500",
          "094310.467500",
          "094313.077500",
          "094315.687500",
          "094318.297500",
          "094320.910000",
          "094323.520000",
          "094326.130000",
          "094328.740000",
          "094331.350000",
          "094333.962500",
          "094336.572500",
          "094339.182500",
          "094341.792500",
          "094344.402500",
          "094347.012500",
          "094349.625000",
          "094352.235000",
          "094354.845000",
          "094357.455000",
          "094400.065000",
          "094402.675000",
          "094405.287500",
          "094407.897500",
          "094410.507500",
          "094413.117500",
          "094415.727500",
          "094418.340000",
          "094420.950000",
          "094423.560000",
          "094426.170000",
          "094428.780000",
          "094431.390000",
          "094434.002500",
          "094436.612500",
          "094439.222500",
          "094441.832500",
          "094444.442500",
          "094447.055000",
          "094449.665000",
          "094452.275000",
          "094454.885000",
          "094457.495000",
          "094500.105000",
          "094502.717500",
          "094505.327500",
          "094507.937500",
          "094510.547500",
          "094513.157500",
          "094515.767500",
          "094518.380000",
          "094520.990000",
          "094523.600000",
          "094526.210000",
          "094528.820000",
          "094531.432500",
          "094534.042500",
          "094536.652500",
          "094539.262500",
          "094541.872500",
          "094544.482500",
          "094547.095000",
          "094549.705000",
          "094552.315000",
          "094554.925000",
          "094557.535000",
          "094600.145000",
          "094602.757500",
          "094605.367500",
          "094607.977500",
          "094610.587500",
          "094613.197500",
          "094615.810000",
          "094618.420000",
          "094621.030000",
          "094623.640000",
          "094626.250000",
          "094628.860000",
          "094631.472500",
          "094634.082500",
          "094636.692500",
          "094639.302500",
          "094641.912500",
          "094644.522500",
          "094647.135000",
          "094649.745000",
          "094652.355000",
          "094654.965000",
          "094657.575000",
          "094700.187500",
          "094702.797500",
          "094705.407500",
          "094708.017500",
          "094710.627500",
          "094713.237500",
          "094715.850000",
          "094718.460000",
          "094721.070000",
          "094723.680000",
          "094726.290000",
          "094728.900000",
          "094731.512500",
          "094734.122500",
          "094736.732500",
          "094739.342500",
          "094741.952500",
          "094744.565000",
          "094747.175000",
          "094749.785000",
          "094752.395000",
          "094755.005000",
          "094757.615000",
          "094800.227500",
          "094802.837500",
          "094805.447500",
          "094808.057500",
          "094810.667500",
          "094813.277500",
          "094815.890000",
          "094818.500000",
          "094821.110000",
          "094823.720000",
          "094826.330000",
          "094828.942500",
          "094831.552500",
          "094834.162500",
          "094836.772500",
          "094839.382500",
          "094841.992500",
          "094844.605000",
          "094847.215000",
          "094849.825000",
          "094852.435000",
          "094855.045000",
          "094857.655000",
          "094900.267500",
          "094902.877500",
          "094905.487500",
          "094908.097500",
          "094910.707500",
          "094913.320000",
          "094915.930000",
          "094918.540000",
          "094921.150000",
          "094923.760000",
          "094926.370000",
          "094928.982500"
        ],
        "ContentTime": [
          "094308.890000",
          "094309.375000",
          "094309.875000",
          "094312.375000",
          "094314.875000",
          "094317.375000",
          "094319.875000",
          "094322.875000",
          "094325.375000",
          "094327.875000",
          "094330.375000",
          "094332.875000",
          "094335.875000",
          "094338.375000",
          "094340.875000",
          "094343.375000",
          "094345.875000",
          "094348.875000",
          "094351.375000",
          "094353.875000",
          "094356.375000",
          "094358.875000",
          "094401.875000",
          "094404.375000",
          "094406.875000",
          "094409.375000",
          "094411.875000",
          "094414.875000",
          "094417.375000",
          "094419.875000",
          "094422.375000",
          "094424.875000",
          "094427.875000",
          "094430.375000",
          "094432.875000",
          "094435.375000",
          "094437.875000",
          "094440.875000",
          "094443.375000",
          "094445.875000",
          "094448.375000",
          "094450.875000",
          "094453.875000",
          "094456.375000",
          "094458.875000",
          "094501.375000",
          "094503.875000",
          "094506.875000",
          "094509.375000",
          "094511.875000",
          "094514.375000",
          "094516.875000",
          "094519.875000",
          "094522.375000",
          "094524.875000",
          "094527.375000",
          "094529.875000",
          "094532.875000",
          "094535.375000",
          "094537.875000",
          "094540.375000",
          "094542.875000",
          "094545.875000",
          "094548.375000",
          "094550.875000",
          "094553.375000",
          "094555.875000",
          "094558.875000",
          "094601.375000",
          "094603.875000",
          "094606.375000",
          "094608.875000",
          "094611.875000",
          "094614.375000",
          "094616.875000",
          "094619.375000",
          "094621.875000",
          "094624.875000",
          "094627.375000",
          "094629.875000",
          "094632.375000",
          "094634.875000",
          "094637.875000",
          "094640.375000",
          "094642.875000",
          "094645.375000",
          "094647.875000",
          "094650.875000",
          "094653.375000",
          "094655.875000",
          "094658.375000",
          "094700.875000",
          "094703.875000",
          "094706.375000",
          "094708.875000",
          "094711.375000",
          "094713.875000",
          "094716.875000",
          "094719.375000",
          "094721.875000",
          "094724.375000",
          "094726.875000",
          "094729.875000",
          "094732.375000",
          "094734.875000",
          "094737.375000",
          "094739.875000",
          "094742.875000",
          "094745.375000",
          "094747.875000",
          "094750.375000",
          "094752.875000",
          "094755.875000",
          "094758.375000",
          "094800.875000",
          "094803.375000",
          "094805.875000",
          "094808.875000",
          "094811.375000",
          "094813.875000",
          "094816.375000",
          "094818.875000",
          "094821.875000",
          "094824.375000",
          "094826.875000",
          "094829.375000",
          "094831.875000",
          "094834.875000",
          "094837.375000",
          "094839.875000",
          "094842.375000",
          "094844.875000",
          "094847.875000",
          "094850.375000",
          "094852.875000",
          "094855.375000",
          "094857.875000",
          "094900.875000",
          "094903.375000",
          "094905.875000",
          "094908.375000",
          "094910.875000",
          "094913.875000",
          "094916.375000",
          "094918.875000",
          "094921.375000",
          "094923.875000",
          "094926.875000",
          "094929.375000",
          "094936.578000"
        ],
        "InstanceCreationTime": [
          "094308.890000",
          "094309.375000",
          "094309.875000",
          "094312.375000",
          "094314.875000",
          "094317.375000",
          "094319.875000",
          "094322.875000",
          "094325.375000",
          "094327.875000",
          "094330.375000",
          "094332.875000",
          "094335.875000",
          "094338.375000",
          "094340.875000",
          "094343.375000",
          "094345.875000",
          "094348.875000",
          "094351.375000",
          "094353.875000",
          "094356.375000",
          "094358.875000",
          "094401.875000",
          "094404.375000",
          "094406.875000",
          "094409.375000",
          "094411.875000",
          "094414.875000",
          "094417.375000",
          "094419.875000",
          "094422.375000",
          "094424.875000",
          "094427.875000",
          "094430.375000",
          "094432.875000",
          "094435.375000",
          "094437.875000",
          "094440.875000",
          "094443.375000",
          "094445.875000",
          "094448.375000",
          "094450.875000",
          "094453.875000",
          "094456.375000",
          "094458.875000",
          "094501.375000",
          "094503.875000",
          "094506.875000",
          "094509.375000",
          "094511.875000",
          "094514.375000",
          "094516.875000",
          "094519.875000",
          "094522.375000",
          "094524.875000",
          "094527.375000",
          "094529.875000",
          "094532.875000",
          "094535.375000",
          "094537.875000",
          "094540.375000",
          "094542.875000",
          "094545.875000",
          "094548.375000",
          "094550.875000",
          "094553.375000",
          "094555.875000",
          "094558.875000",
          "094601.375000",
          "094603.875000",
          "094606.375000",
          "094608.875000",
          "094611.875000",
          "094614.375000",
          "094616.875000",
          "094619.375000",
          "094621.875000",
          "094624.875000",
          "094627.375000",
          "094629.875000",
          "094632.375000",
          "094634.875000",
          "094637.875000",
          "094640.375000",
          "094642.875000",
          "094645.375000",
          "094647.875000",
          "094650.875000",
          "094653.375000",
          "094655.875000",
          "094658.375000",
          "094700.875000",
          "094703.875000",
          "094706.375000",
          "094708.875000",
          "094711.375000",
          "094713.875000",
          "094716.875000",
          "094719.375000",
          "094721.875000",
          "094724.375000",
          "094726.875000",
          "094729.875000",
          "094732.375000",
          "094734.875000",
          "094737.375000",
          "094739.875000",
          "094742.875000",
          "094745.375000",
          "094747.875000",
          "094750.375000",
          "094752.875000",
          "094755.875000",
          "094758.375000",
          "094800.875000",
          "094803.375000",
          "094805.875000",
          "094808.875000",
          "094811.375000",
          "094813.875000",
          "094816.375000",
          "094818.875000",
          "094821.875000",
          "094824.375000",
          "094826.875000",
          "094829.375000",
          "094831.875000",
          "094834.875000",
          "094837.375000",
          "094839.875000",
          "094842.375000",
          "094844.875000",
          "094847.875000",
          "094850.375000",
          "094852.875000",
          "094855.375000",
          "094857.875000",
          "094900.875000",
          "094903.375000",
          "094905.875000",
          "094908.375000",
          "094910.875000",
          "094913.875000",
          "094916.375000",
          "094918.875000",
          "094921.375000",
          "094923.875000",
          "094926.875000",
          "094929.375000",
          "094936.578000"
        ],
        "InstanceNumber": [
          1,
          2,
          3,
          4,
          5,
          6,
          7,
          8,
          9,
          10,
          11,
          12,
          13,
          14,
          15,
          16,
          17,
          18,
          19,
          20,
          21,
          22,
          23,
          24,
          25,
          26,
          27,
          28,
          29,
          30,
          31,
          32,
          33,
          34,
          35,
          36,
          37,
          38,
          39,
          40,
          41,
          42,
          43,
          44,
          45,
          46,
          47,
          48,
          49,
          50,
          51,
          52,
          53,
          54,
          55,
          56,
          57,
          58,
          59,
          60,
          61,
          62,
          63,
          64,
          65,
          66,
          67,
          68,
          69,
          70,
          71,
          72,
          73,
          74,
          75,
          76,
          77,
          78,
          79,
          80,
          81,
          82,
          83,
          84,
          85,
          86,
          87,
          88,
          89,
          90,
          91,
          92,
          93,
          94,
          95,
          96,
          97,
          98,
          99,
          100,
          101,
          102,
          103,
          104,
          105,
          106,
          107,
          108,
          109,
          110,
          111,
          112,
          113,
          114,
          115,
          116,
          117,
          118,
          119,
          120,
          121,
          122,
          123,
          124,
          125,
          126,
          127,
          128,
          129,
          130,
          131,
          132,
          133,
          134,
          135,
          136,
          137,
          138,
          139,
          140,
          141,
          142,
          143,
          144,
          145,
          146,
          147,
          148,
          149,
          150
        ],
        "WindowCenter": [
          820.0,
          820.0,
          820.0,
          821.0,
          820.0,
          821.0,
          819.0,
          819.0,
          819.0,
          818.0,
          819.0,
          820.0,
          821.0,
          821.0,
          823.0,
          822.0,
          821.0,
          820.0,
          820.0,
          820.0,
          819.0,
          818.0,
          817.0,
          819.0,
          820.0,
          819.0,
          819.0,
          818.0,
          820.0,
          822.0,
          820.0,
          820.0,
          821.0,
          822.0,
          823.0,
          821.0,
          821.0,
          822.0,
          822.0,
          823.0,
          822.0,
          821.0,
          820.0,
          820.0,
          819.0,
          819.0,
          819.0,
          820.0,
          821.0,
          821.0,
          820.0,
          819.0,
          818.0,
          819.0,
          821.0,
          822.0,
          821.0,
          821.0,
          820.0,
          820.0,
          819.0,
          820.0,
          820.0,
          822.0,
          823.0,
          821.0,
          821.0,
          821.0,
          820.0,
          819.0,
          819.0,
          820.0,
          820.0,
          821.0,
          822.0,
          820.0,
          819.0,
          820.0,
          820.0,
          820.0,
          820.0,
          821.0,
          823.0,
          823.0,
          821.0,
          820.0,
          820.0,
          822.0,
          822.0,
          820.0,
          819.0,
          820.0,
          822.0,
          822.0,
          821.0,
          820.0,
          819.0,
          820.0,
          821.0,
          822.0,
          820.0,
          819.0,
          820.0,
          820.0,
          819.0,
          819.0,
          822.0,
          823.0,
          823.0,
          822.0,
          821.0,
          818.0,
          819.0,
          821.0,
          821.0,
          820.0,
          822.0,
          822.0,
          820.0,
          820.0,
          819.0,
          821.0,
          824.0,
          824.0,
          823.0,
          821.0,
          819.0,
          819.0,
          819.0,
          820.0,
          821.0,
          821.0,
          821.0,
          821.0,
          821.0,
          822.0,
          821.0,
          822.0,
          822.0,
          822.0,
          824.0,
          825.0,
          821.0,
          820.0,
          821.0,
          821.0,
          820.0,
          820.0,
          821.0,
          824.0
        ],
        "WindowWidth": [
          1814.0,
          1811.0,
          1812.0,
          1814.0,
          1814.0,
          1814.0,
          1810.0,
          1810.0,
          1810.0,
          1807.0,
          1809.0,
          1814.0,
          1815.0,
          1817.0,
          1821.0,
          1820.0,
          1816.0,
          1813.0,
          1814.0,
          1811.0,
          1808.0,
          1806.0,
          1804.0,
          1811.0,
          1812.0,
          1809.0,
          1809.0,
          1807.0,
          1812.0,
          1818.0,
          1811.0,
          1813.0,
          1816.0,
          1821.0,
          1820.0,
          1815.0,
          1816.0,
          1819.0,
          1818.0,
          1821.0,
          1819.0,
          1814.0,
          1811.0,
          1812.0,
          1810.0,
          1809.0,
          1810.0,
          1813.0,
          1816.0,
          1817.0,
          1812.0,
          1810.0,
          1807.0,
          1809.0,
          1815.0,
          1818.0,
          1815.0,
          1815.0,
          1813.0,
          1811.0,
          1810.0,
          1811.0,
          1811.0,
          1820.0,
          1822.0,
          1816.0,
          1815.0,
          1816.0,
          1811.0,
          1808.0,
          1809.0,
          1811.0,
          1810.0,
          1815.0,
          1817.0,
          1811.0,
          1810.0,
          1811.0,
          1811.0,
          1812.0,
          1811.0,
          1816.0,
          1822.0,
          1820.0,
          1816.0,
          1812.0,
          1811.0,
          1818.0,
          1818.0,
          1811.0,
          1809.0,
          1813.0,
          1819.0,
          1820.0,
          1814.0,
          1812.0,
          1810.0,
          1812.0,
          1816.0,
          1817.0,
          1812.0,
          1810.0,
          1811.0,
          1810.0,
          1808.0,
          1811.0,
          1817.0,
          1820.0,
          1822.0,
          1818.0,
          1814.0,
          1807.0,
          1810.0,
          1816.0,
          1814.0,
          1811.0,
          1819.0,
          1816.0,
          1811.0,
          1811.0,
          1809.0,
          1815.0,
          1824.0,
          1823.0,
          1821.0,
          1813.0,
          1808.0,
          1808.0,
          1809.0,
          1812.0,
          1816.0,
          1815.0,
          1814.0,
          1814.0,
          1815.0,
          1818.0,
          1815.0,
          1816.0,
          1818.0,
          1819.0,
          1825.0,
          1826.0,
          1815.0,
          1812.0,
          1814.0,
          1813.0,
          1811.0,
          1811.0,
          1815.0,
          1823.0
        ]
      },
      "slices": {}
    }
  },
  "dummy_trs": 0,
  "dvars_nstd": 77.96162076617449,
  "dvars_std": 1.0573616959060406,
  "dvars_vstd": 1.0128344310067117,
  "efc": 0.5886561803709712,
  "fber": 225.87010192871094,
  "fd_mean": 0.06252821687919166,
  "fd_num": 2,
  "fd_perc": 1.3333333333333333,
  "fwhm_avg": 2.9616294844737077,
  "fwhm_x": 2.6605193004657535,
  "fwhm_y": 2.9315587060211343,
  "fwhm_z": 3.292810446934234,
  "gcor": 0.00223289,
  "gsr_x": 0.0067325434647500515,
  "gsr_y": 0.05626454949378967,
  "provenance": {
    "md5sum": "e83fb60f04622d2e852980fcb6888934",
    "settings": {
      "fd_thres": 0.2,
      "testing": false
    },
    "software": "mriqc",
    "version": "22.0.6",
    "webapi_port": null,
    "webapi_url": "https://mriqc.nimh.nih.gov/api/v1"
  },
  "size_t": 150,
  "size_x": 188,
  "size_y": 188,
  "size_z": 46,
  "snr": 2.0966955002665424,
  "spacing_tr": 2.5999999046325684,
  "spacing_x": 1.0957447290420532,
  "spacing_y": 1.0957447290420532,
  "spacing_z": 1.0999995470046997,
  "summary_bg_k": 49.02515537694343,
  "summary_bg_mad": 29.844778586429154,
  "summary_bg_mean": 85.66783905029297,
  "summary_bg_median": 51.5433349609375,
  "summary_bg_n": 1008446.0,
  "summary_bg_p05": 27.853334426879883,
