{
  "aor": 0.0011183333333333334,
  "aqi": 0.023633078,
  "bids_meta": {
    "AcquisitionMatrixPE": 188,
    "AcquisitionNumber": 1,
    "AcquisitionTime": "09:26:59.012500",
    "BandwidthPerPixelPhaseEncode": 19.46,
    "BaseResolution": 188,
    "ConversionSoftware": "dcm2niix",
    "ConversionSoftwareVersion": "v1.0.20180606 GCC4.8.5",
    "DelayTime": 1.2,
    "DerivedVendorReportedEchoSpacing": 0.000820013,
    "DeviceSerialNumber": "18930",
    "DwellTime": 1.9e-06,
    "EchoTime": 0.02,
    "EffectiveEchoSpacing": 0.000273338,
    "FlipAngle": 80,
    "ImageComments": "Unaliased_MB2_PE2",
    "ImageOrientationPatientDICOM": [
      0.996737,
      0.0336715,
      -0.0733541,
      -0.080142,
      0.304957,
      -0.948988
    ],
    "ImageType": [
      "ORIGINAL",
      "PRIMARY",
      "M",
      "MB",
      "ND",
      "MOSAIC"
    ],
    "InPlanePhaseEncodingDirectionDICOM": "COL",
    "InstitutionAddress": "Oxfordlaan_55_Maastricht_22AAA2_Limburg_NL_6229_EV",
    "InstitutionName": "Scannexus",
    "InstitutionalDepartmentName": "MRI_7T",
    "MRAcquisitionType": "2D",
    "MagneticFieldStrength": 6.98,
    "Manufacturer": "Siemens",
    "ManufacturersModelName": "Investigational_Device_7T",
    "Modality": "MR",
    "MultibandAccelerationFactor": 2,
    "ParallelReductionFactorInPlane": 3,
    "PartialFourier": 0.75,
    "PatientPosition": "HFS",
    "PercentPhaseFOV": 100,
    "PhaseEncodingDirection": "j",
    "PhaseEncodingSteps": 141,
    "PhaseResolution": 1,
    "PixelBandwidth": 1400,
    "ProcedureStepDescription": "FeDem_Faruk",
    "ProtocolName": "cmrr_mbep2d_bold_AP_run1",
    "PulseSequenceDetails": "%CustomerSeq%_cmrr_mbep2d_bold",
    "ReceiveCoilName": "32Ch_Head_7T",
    "ReconMatrixPE": 188,
    "RepetitionTime": 2.6,
    "SAR": 0.053711,
    "ScanOptions": "PFP_FS",
    "ScanningSequence": "EP",
    "SequenceName": "epfid2d1_188",
    "SequenceVariant": "SK_SS",
    "SeriesDescription": "cmrr_mbep2d_bold_AP_run1",
    "SeriesNumber": 11,
    "ShimSetting": [
      15,
      -215,
      478,
      327,
      -91,
      -137,
      182,
      154
    ],
    "SliceThickness": 1.1,
    "SliceTiming": [
      0,
      0.735,
      0.0625,
      0.795,
      0.1225,
      0.8575,
      0.185,
      0.9175,
      0.245,
      0.9775,
      0.3075,
      1.04,
      0.3675,
      1.1,
      0.4275,
      1.1625,
      0.49,
      1.2225,
      0.55,
      1.285,
      0.6125,
      1.345,
      0.6725,
      0,
      0.735,
      0.0625,
      0.795,
      0.1225,
      0.8575,
      0.185,
      0.9175,
      0.245,
      0.9775,
      0.3075,
      1.04,
      0.3675,
      1.1,
      0.4275,
      1.1625,
      0.49,
      1.2225,
      0.55,
      1.285,
      0.6125,
      1.345,
      0.6725
    ],
    "SoftwareVersions": "syngo_MR_B17",
    "SpacingBetweenSlices": 1.1,
    "StationName": "MRC18930",
    "TaskName": "auditory",
    "TotalReadoutTime": 0.0511141,
    "TxRefAmp": 195,
    "dataset": "ds001942",
    "dcmmeta_affine": [
      [
        -1.0921697616577148,
        -0.08781520277261734,
        0.010542330332100391,
        107.87574005126953
      ],
      [
        -0.03689532354474068,
        0.33415523171424866,
        -1.0469472408294678,
        20.20245361328125
      ],
      [
        -0.08037740737199783,
        1.0398486852645874,
        0.33732667565345764,
        -111.89634704589844
      ],
      [
        0.0,
        0.0,
        0.0,
        1.0
      ]
    ],
    "dcmmeta_reorient_transform": [
      [
        0.0,
        -1.0,
        0.0,
        187.0
      ],
      [
        1.0,
        0.0,
        0.0,
        0.0
      ],
      [
        0.0,
        0.0,
        1.0,
        0.0
      ],
      [
        0.0,
        0.0,
        0.0,
        1.0
      ]
    ],
    "dcmmeta_shape": [
      188,
      188,
      46,
      150
    ],
    "dcmmeta_slice_dim": 2,
    "dcmmeta_version": 0.6,
    "global": {
      "const": {
        "AcquisitionMatrix": [
          188,
          0,
          0,
          188
        ],
        "AngioFlag": "N",
        "BitsAllocated": 16,
        "BitsStored": 12,
        "Columns": 1316,
        "EchoNumbers": 1,
        "EchoTime": 20.0,
        "EchoTrainLength": 1,
        "FlipAngle": 80.0,
        "HighBit": 11,
        "ImageOrientationPatient": [
          0.99673737947879,
          0.03367145757805,
          -0.0733541361774,
          -0.0801420266192,
          0.3049571876327,
          -0.9489880764691
        ],
        "ImagePositionPatient": [
          -657.910247797,
          -291.96199391522,
          714.36287235052
        ],
        "ImageType": [
          "ORIGINAL",
          "PRIMARY",
          "M",
          "MB",
          "ND",
          "MOSAIC"
        ],
        "ImagedNucleus": "1H",
        "ImagingFrequency": 297.20556,
        "InPlanePhaseEncodingDirection": "COL",
        "LargestImagePixelValue": 4095,
        "MRAcquisitionType": "2D",
        "MagneticFieldStrength": 6.98,
        "Manufacturer": "SIEMENS",
        "ManufacturerModelName": "Investigational_Device_7T",
        "Modality": "MR",
        "NumberOfAverages": 1.0,
        "NumberOfPhaseEncodingSteps": 141,
        "PercentPhaseFieldOfView": 100.0,
        "PercentSampling": 100.0,
        "PerformedProcedureStepStartTime": "085813.937000",
        "PhotometricInterpretation": "MONOCHROME2",
        "PixelBandwidth": 1400.0,
        "PixelRepresentation": 0,
        "PixelSpacing": [
          1.0957447290421,
          1.0957447290421
        ],
        "ProtocolName": "cmrr_mbep2d_bold_AP_run1",
        "RepetitionTime": 2600.0,
        "Rows": 1316,
        "SAR": 0.05371097798028,
        "SamplesPerPixel": 1,
        "ScanOptions": [
          "PFP",
          "FS"
        ],
        "ScanningSequence": "EP",
        "SequenceName": "epfid2d1_188",
        "SequenceVariant": [
          "SK",
          "SS"
        ],
        "SeriesDescription": "cmrr_mbep2d_bold_AP_run1",
        "SeriesNumber": 11,
        "SeriesTime": "092706.968000",
        "SliceLocation": -52.508442610931,
        "SliceThickness": 1.1000000238419,
        "SmallestImagePixelValue": 0,
        "SoftwareVersions": "syngo MR B17",
        "SpacingBetweenSlices": 1.0999995674712,
        "SpecificCharacterSet": "ISO_IR 100",
        "StudyID": "1",
        "StudyTime": "085813.875000",
        "TransmitCoilName": "32Ch_Head_7T",
        "VariableFlipAngleFlag": "N",
        "WindowCenterWidthExplanation": "Algo1",
        "dBdt": 0.0
      },
      "slices": {}
    },
    "modality": "bold",
    "run_id": 1,
    "session_id": "SES02",
    "subject_id": "S06",
    "task_id": "auditory",
    "time": {
      "samples": {
        "AcquisitionNumber": [
          1,
          2,
          3,
          4,
          5,
          6,
          7,
          8,
          9,
          10,
          11,
          12,
          13,
          14,
          15,
          16,
          17,
          18,
          19,
          20,
          21,
          22,
          23,
          24,
          25,
          26,
          27,
          28,
          29,
          30,
          31,
          32,
          33,
          34,
          35,
          36,
          37,
          38,
          39,
          40,
          41,
          42,
          43,
          44,
          45,
          46,
          47,
          48,
          49,
          50,
          51,
          52,
          53,
          54,
          55,
          56,
          57,
          58,
          59,
          60,
          61,
          62,
          63,
          64,
          65,
          66,
          67,
          68,
          69,
          70,
          71,
          72,
          73,
          74,
          75,
          76,
          77,
          78,
          79,
          80,
          81,
          82,
          83,
          84,
          85,
          86,
          87,
          88,
          89,
          90,
          91,
          92,
          93,
          94,
          95,
          96,
          97,
          98,
          99,
          100,
          101,
          102,
          103,
          104,
          105,
          106,
          107,
          108,
          109,
          110,
          111,
          112,
          113,
          114,
          115,
          116,
          117,
          118,
          119,
          120,
          121,
          122,
          123,
          124,
          125,
          126,
          127,
          128,
          129,
          130,
          131,
          132,
          133,
          134,
          135,
          136,
          137,
          138,
          139,
          140,
          141,
          142,
          143,
          144,
          145,
          146,
          147,
          148,
          149,
          150
        ],
        "AcquisitionTime": [
          "092659.012500",
          "092701.625000",
          "092704.235000",
          "092706.845000",
          "092709.455000",
          "092712.065000",
          "092714.675000",
          "092717.287500",
          "092719.897500",
          "092722.507500",
          "092725.117500",
          "092727.727500",
          "092730.337500",
          "092732.950000",
          "092735.560000",
          "092738.170000",
          "092740.780000",
          "092743.390000",
          "092746.002500",
          "092748.612500",
          "092751.222500",
          "092753.832500",
          "092756.442500",
          "092759.052500",
          "092801.665000",
          "092804.275000",
          "092806.885000",
          "092809.495000",
          "092812.105000",
          "092814.715000",
          "092817.327500",
          "092819.937500",
          "092822.547500",
          "092825.157500",
          "092827.767500",
          "092830.380000",
          "092832.990000",
          "092835.600000",
          "092838.210000",
          "092840.820000",
          "092843.430000",
          "092846.042500",
          "092848.652500",
          "092851.262500",
          "092853.872500",
          "092856.482500",
          "092859.092500",
          "092901.705000",
          "092904.315000",
          "092906.925000",
          "092909.535000",
          "092912.145000",
          "092914.757500",
          "092917.367500",
          "092919.977500",
          "092922.587500",
          "092925.197500",
          "092927.807500",
          "092930.420000",
          "092933.030000",
          "092935.640000",
          "092938.250000",
          "092940.860000",
          "092943.470000",
          "092946.082500",
          "092948.692500",
          "092951.302500",
          "092953.912500",
          "092956.522500",
          "092959.135000",
          "093001.745000",
          "093004.355000",
          "093006.965000",
          "093009.575000",
          "093012.185000",
          "093014.797500",
          "093017.407500",
          "093020.017500",
          "093022.627500",
          "093025.237500",
          "093027.847500",
          "093030.460000",
          "093033.070000",
          "093035.680000",
          "093038.290000",
          "093040.900000",
          "093043.512500",
          "093046.122500",
          "093048.732500",
          "093051.342500",
          "093053.952500",
          "093056.562500",
          "093059.175000",
          "093101.785000",
          "093104.395000",
          "093107.005000",
          "093109.615000",
          "093112.227500",
          "093114.837500",
          "093117.447500",
          "093120.057500",
          "093122.667500",
          "093125.277500",
          "093127.890000",
          "093130.500000",
          "093133.110000",
          "093135.720000",
          "093138.330000",
          "093140.940000",
          "093143.552500",
          "093146.162500",
          "093148.772500",
          "093151.382500",
          "093153.992500",
          "093156.605000",
          "093159.215000",
          "093201.825000",
          "093204.435000",
          "093207.045000",
          "093209.655000",
          "093212.267500",
          "093214.877500",
          "093217.487500",
          "093220.097500",
          "093222.707500",
          "093225.317500",
          "093227.930000",
          "093230.540000",
          "093233.150000",
          "093235.760000",
          "093238.370000",
          "093240.982500",
          "093243.592500",
          "093246.202500",
          "093248.812500",
          "093251.422500",
          "093254.032500",
          "093256.645000",
          "093259.255000",
          "093301.865000",
          "093304.475000",
          "093307.085000",
          "093309.695000",
          "093312.307500",
          "093314.917500",
          "093317.527500",
          "093320.137500",
          "093322.747500",
          "093325.360000",
          "093327.970000"
        ],
        "ContentTime": [
          "092706.968000",
          "092707.468000",
          "092707.968000",
          "092710.468000",
          "092712.968000",
          "092715.468000",
          "092717.968000",
          "092720.468000",
          "092723.468000",
          "092725.968000",
          "092728.468000",
          "092730.968000",
          "092733.968000",
          "092736.468000",
          "092738.968000",
          "092741.468000",
          "092743.968000",
          "092746.468000",
          "092749.468000",
          "092751.968000",
          "092754.468000",
          "092756.968000",
          "092759.468000",
          "092802.468000",
          "092804.968000",
          "092807.468000",
          "092809.968000",
          "092812.468000",
          "092815.468000",
          "092817.968000",
          "092820.468000",
          "092822.968000",
          "092825.468000",
          "092828.468000",
          "092830.968000",
          "092833.468000",
          "092835.968000",
          "092838.468000",
          "092841.468000",
          "092843.968000",
          "092846.468000",
          "092848.968000",
          "092851.468000",
          "092854.468000",
          "092856.968000",
          "092859.468000",
          "092901.968000",
          "092904.468000",
          "092907.468000",
          "092909.968000",
          "092912.468000",
          "092914.968000",
          "092917.468000",
          "092920.468000",
          "092922.968000",
          "092925.468000",
          "092927.968000",
          "092930.468000",
          "092933.468000",
          "092935.968000",
          "092938.468000",
          "092940.968000",
          "092943.468000",
          "092946.468000",
          "092948.968000",
          "092951.468000",
          "092953.968000",
          "092956.468000",
          "092959.468000",
          "093001.968000",
          "093004.468000",
          "093006.968000",
          "093009.468000",
          "093012.468000",
          "093014.968000",
          "093017.468000",
          "093019.968000",
          "093022.468000",
          "093025.468000",
          "093027.968000",
          "093030.468000",
          "093032.968000",
          "093035.468000",
          "093038.468000",
          "093040.968000",
          "093043.468000",
          "093045.968000",
          "093048.468000",
          "093051.468000",
          "093053.968000",
          "093056.468000",
          "093058.968000",
          "093101.468000",
          "093104.468000",
          "093106.968000",
          "093109.468000",
          "093111.968000",
          "093114.468000",
          "093117.468000",
          "093119.968000",
          "093122.468000",
          "093124.968000",
          "093127.468000",
          "093130.468000",
          "093132.968000",
          "093135.468000",
          "093137.968000",
          "093140.468000",
          "093143.468000",
          "093145.968000",
          "093148.468000",
          "093150.968000",
          "093153.468000",
          "093156.468000",
          "093158.968000",
          "093201.468000",
          "093203.968000",
          "093206.468000",
          "093209.468000",
          "093211.968000",
          "093214.468000",
          "093216.968000",
          "093219.468000",
          "093222.468000",
          "093224.968000",
          "093227.468000",
          "093229.968000",
          "093232.468000",
          "093235.468000",
          "093237.968000",
          "093240.468000",
          "093242.968000",
          "093245.968000",
          "093248.468000",
          "093250.968000",
          "093253.468000",
          "093255.968000",
          "093258.968000",
          "093301.468000",
          "093303.968000",
          "093306.468000",
          "093308.968000",
          "093311.468000",
          "093314.468000",
          "093316.968000",
          "093319.468000",
          "093321.968000",
          "093324.468000",
          "093327.468000",
          "093334.625000"
        ],
        "InstanceCreationTime": [
          "092706.968000",
          "092707.468000",
          "092707.968000",
          "092710.468000",
          "092712.968000",
          "092715.468000",
          "092717.968000",
          "092720.468000",
          "092723.468000",
          "092725.968000",
          "092728.468000",
          "092730.968000",
          "092733.968000",
          "092736.468000",
          "092738.968000",
          "092741.468000",
          "092743.968000",
          "092746.468000",
          "092749.468000",
          "092751.968000",
          "092754.468000",
          "092756.968000",
          "092759.468000",
          "092802.468000",
          "092804.968000",
          "092807.468000",
          "092809.968000",
          "092812.468000",
          "092815.468000",
          "092817.968000",
          "092820.468000",
          "092822.968000",
          "092825.468000",
          "092828.468000",
          "092830.968000",
          "092833.468000",
          "092835.968000",
          "092838.468000",
          "092841.468000",
          "092843.968000",
          "092846.468000",
          "092848.968000",
          "092851.468000",
          "092854.468000",
          "092856.968000",
          "092859.468000",
          "092901.968000",
          "092904.468000",
          "092907.468000",
          "092909.968000",
          "092912.468000",
          "092914.968000",
          "092917.468000",
          "092920.468000",
          "092922.968000",
          "092925.468000",
          "092927.968000",
          "092930.468000",
          "092933.468000",
          "092935.968000",
          "092938.468000",
          "092940.968000",
          "092943.468000",
          "092946.468000",
          "092948.968000",
          "092951.468000",
          "092953.968000",
          "092956.468000",
          "092959.468000",
          "093001.968000",
          "093004.468000",
          "093006.968000",
          "093009.468000",
          "093012.468000",
          "093014.968000",
          "093017.468000",
          "093019.968000",
          "093022.468000",
          "093025.468000",
          "093027.968000",
          "093030.468000",
          "093032.968000",
          "093035.468000",
          "093038.468000",
          "093040.968000",
          "093043.468000",
          "093045.968000",
          "093048.468000",
          "093051.468000",
          "093053.968000",
          "093056.468000",
          "093058.968000",
          "093101.468000",
          "093104.468000",
          "093106.968000",
          "093109.468000",
          "093111.968000",
          "093114.468000",
          "093117.468000",
          "093119.968000",
          "093122.468000",
          "093124.968000",
          "093127.468000",
          "093130.468000",
          "093132.968000",
          "093135.468000",
          "093137.968000",
          "093140.468000",
          "093143.468000",
          "093145.968000",
          "093148.468000",
          "093150.968000",
          "093153.468000",
          "093156.468000",
          "093158.968000",
          "093201.468000",
          "093203.968000",
          "093206.468000",
          "093209.468000",
          "093211.968000",
          "093214.468000",
          "093216.968000",
          "093219.468000",
          "093222.468000",
          "093224.968000",
          "093227.468000",
          "093229.968000",
          "093232.468000",
          "093235.468000",
          "093237.968000",
          "093240.468000",
          "093242.968000",
          "093245.968000",
          "093248.468000",
          "093250.968000",
          "093253.468000",
          "093255.968000",
          "093258.968000",
          "093301.468000",
          "093303.968000",
          "093306.468000",
          "093308.968000",
          "093311.468000",
          "093314.468000",
          "093316.968000",
          "093319.468000",
          "093321.968000",
          "093324.468000",
          "093327.468000",
          "093334.625000"
        ],
        "InstanceNumber": [
          1,
          2,
          3,
          4,
          5,
          6,
          7,
          8,
          9,
          10,
          11,
          12,
          13,
          14,
          15,
          16,
          17,
          18,
          19,
          20,
          21,
          22,
          23,
          24,
          25,
          26,
          27,
          28,
          29,
          30,
          31,
          32,
          33,
          34,
          35,
          36,
          37,
          38,
          39,
          40,
          41,
          42,
          43,
          44,
          45,
          46,
          47,
          48,
          49,
          50,
          51,
          52,
          53,
          54,
          55,
          56,
          57,
          58,
          59,
          60,
          61,
          62,
          63,
          64,
          65,
          66,
          67,
          68,
          69,
          70,
          71,
          72,
          73,
          74,
          75,
          76,
          77,
          78,
          79,
          80,
          81,
          82,
          83,
          84,
          85,
          86,
          87,
          88,
          89,
          90,
          91,
          92,
          93,
          94,
          95,
          96,
          97,
          98,
          99,
          100,
          101,
          102,
          103,
          104,
          105,
          106,
          107,
          108,
          109,
          110,
          111,
          112,
          113,
          114,
          115,
          116,
          117,
          118,
          119,
          120,
          121,
          122,
          123,
          124,
          125,
          126,
          127,
          128,
          129,
          130,
          131,
          132,
          133,
          134,
          135,
          136,
          137,
          138,
          139,
          140,
          141,
          142,
          143,
          144,
          145,
          146,
          147,
          148,
          149,
          150
        ],
        "WindowCenter": [
          826.0,
          824.0,
          824.0,
          824.0,
          825.0,
          826.0,
          825.0,
          825.0,
          826.0,
          826.0,
          826.0,
          825.0,
          825.0,
          825.0,
          823.0,
          822.0,
          822.0,
          824.0,
          823.0,
          823.0,
          822.0,
          822.0,
          823.0,
          823.0,
          823.0,
          822.0,
          823.0,
          824.0,
          823.0,
          823.0,
          823.0,
          824.0,
          824.0,
          823.0,
          823.0,
          823.0,
          822.0,
          822.0,
          822.0,
          822.0,
          823.0,
          823.0,
          823.0,
          822.0,
          822.0,
          823.0,
          823.0,
          822.0,
          823.0,
          823.0,
          823.0,
          822.0,
          823.0,
          823.0,
          823.0,
          823.0,
          823.0,
          823.0,
          823.0,
          823.0,
          822.0,
          821.0,
          821.0,
          822.0,
          821.0,
          821.0,
          821.0,
          822.0,
          822.0,
          821.0,
          821.0,
          821.0,
          820.0,
          820.0,
          822.0,
          822.0,
          821.0,
          821.0,
          822.0,
          822.0,
          821.0,
          821.0,
          821.0,
          821.0,
          821.0,
          820.0,
          821.0,
          822.0,
          822.0,
          821.0,
          821.0,
          822.0,
          822.0,
          820.0,
          820.0,
          821.0,
          822.0,
          823.0,
          821.0,
          820.0,
          822.0,
          821.0,
          820.0,
          820.0,
          820.0,
          821.0,
          822.0,
          821.0,
          821.0,
          821.0,
          821.0,
          821.0,
          821.0,
          820.0,
          819.0,
          819.0,
          819.0,
          818.0,
          818.0,
          819.0,
          819.0,
          819.0,
          819.0,
          819.0,
          820.0,
          821.0,
          821.0,
          821.0,
          821.0,
          820.0,
          819.0,
          819.0,
          820.0,
          820.0,
          818.0,
          817.0,
          817.0,
          818.0,
          818.0,
          818.0,
          819.0,
          819.0,
          820.0,
          820.0,
          820.0,
          819.0,
          819.0,
          819.0,
          819.0,
          819.0
        ],
        "WindowWidth": [
          1831.0,
          1826.0,
          1824.0,
          1825.0,
          1827.0,
          1830.0,
          1828.0,
          1828.0,
          1830.0,
          1832.0,
          1831.0,
          1830.0,
          1828.0,
          1826.0,
          1822.0,
          1819.0,
          1821.0,
          1825.0,
          1821.0,
          1820.0,
          1819.0,
          1819.0,
          1821.0,
          1821.0,
          1821.0,
          1819.0,
          1823.0,
          1825.0,
          1823.0,
          1822.0,
          1823.0,
          1825.0,
          1824.0,
          1821.0,
          1820.0,
          1821.0,
          1820.0,
          1819.0,
          1820.0,
          1820.0,
          1820.0,
          1821.0,
          1821.0,
          1819.0,
          1819.0,
          1822.0,
          1823.0,
          1819.0,
          1821.0,
          1821.0,
          1821.0,
          1820.0,
          1821.0,
          1821.0,
          1822.0,
          1821.0,
          1820.0,
          1820.0,
          1822.0,
          1820.0,
          1818.0,
          1817.0,
          1816.0,
          1818.0,
          1816.0,
          1815.0,
          1817.0,
          1817.0,
          1819.0,
          1815.0,
          1815.0,
          1816.0,
          1812.0,
          1813.0,
          1818.0,
          1817.0,
          1816.0,
          1816.0,
          1817.0,
          1817.0,
          1814.0,
          1814.0,
          1815.0,
          1814.0,
          1816.0,
          1813.0,
          1815.0,
          1817.0,
          1817.0,
          1815.0,
          1816.0,
          1818.0,
          1818.0,
          1813.0,
          1812.0,
          1815.0,
          1818.0,
          1820.0,
          1815.0,
          1814.0,
          1817.0,
          1815.0,
          1813.0,
          1812.0,
          1813.0,
          1816.0,
          1816.0,
          1813.0,
          1816.0,
          1814.0,
          1814.0,
          1815.0,
          1815.0,
          1811.0,
          1809.0,
          1808.0,
          1809.0,
          1806.0,
          1806.0,
          1808.0,
          1808.0,
          1809.0,
          1807.0,
          1808.0,
          1810.0,
          1815.0,
          1813.0,
          1814.0,
          1814.0,
          1811.0,
          1809.0,
          1809.0,
          1811.0,
          1810.0,
          1804.0,
          1801.0,
          1801.0,
          1804.0,
          1804.0,
          1806.0,
          1810.0,
          1809.0,
          1811.0,
          1810.0,
          1810.0,
          1810.0,
          1809.0,
          1809.0,
          1809.0,
          1808.0
        ]
      },
      "slices": {}
    }
  },
  "dummy_trs": 0,
  "dvars_nstd": 75.53977310899327,
  "dvars_std": 1.0267102561744967,
  "dvars_vstd": 0.9930757089932889,
  "efc": 0.5876787910626696,
  "fber": 238.52589416503906,
  "fd_mean": 0.06755439328367696,
  "fd_num": 1,
  "fd_perc": 0.6666666666666666,
  "fwhm_avg": 2.9826175343111863,
  "fwhm_x": 2.6259948359647263,
  "fwhm_y": 3.020265498236303,
  "fwhm_z": 3.301592268732528,
  "gcor": 0.00339622,
  "gsr_x": -0.0187221709638834,
  "gsr_y": 0.06705442816019058,
  "provenance": {
    "md5sum": "81e912b6542c876cf9c737258cf99319",
    "settings": {
      "fd_thres": 0.2,
      "testing": false
    },
    "software": "mriqc",
    "version": "23.0.1",
    "webapi_port": null,
    "webapi_url": "https://mriqc.nimh.nih.gov/api/v1"
  },
  "size_t": 150,
  "size_x": 188,
  "size_y": 188,
  "size_z": 46,
  "snr": 2.0507901973383995,
  "spacing_tr": 2.5999999046325684,
  "spacing_x": 1.0957447290420532,
  "spacing_y": 1.0957447290420532,
  "spacing_z": 1.0999995470046997,
  "summary_bg_k": 29.63475071676968,
  "summary_bg_mad": 28.278166917569234,
  "summary_bg_mean": 78.03506469726562,
  "summary_bg_median": 50.18000030517578,
  "summary_bg_n": 992035.0,
  "summary_bg_p05": 27.846668243408203,
  "summary_bg_p95": 219.89334106445312,
