{
  "aor": 0.0007348148148148148,
  "aqi": 0.011895834953703706,
  "bids_meta": {
    "AcquisitionMatrixPE": 188,
    "AcquisitionNumber": 1,
    "AcquisitionTime": "17:58:36.667500",
    "BandwidthPerPixelPhaseEncode": 19.46,
    "BaseResolution": 188,
    "ConversionSoftware": "dcm2niix",
    "ConversionSoftwareVersion": "v1.0.20180606 GCC4.8.5",
    "DelayTime": 1.2,
    "DerivedVendorReportedEchoSpacing": 0.000820013,
    "DeviceSerialNumber": "18930",
    "DwellTime": 1.9e-06,
    "EchoTime": 0.02,
    "EffectiveEchoSpacing": 0.000273338,
    "FlipAngle": 80,
    "ImageComments": "Unaliased_MB2_PE2",
    "ImageOrientationPatientDICOM": [
      0.999156,
      0.040874,
      -0.00418031,
      -0.00977667,
      0.137694,
      -0.990427
    ],
    "ImageType": [
      "ORIGINAL",
      "PRIMARY",
      "M",
      "MB",
      "ND",
      "MOSAIC"
    ],
    "InPlanePhaseEncodingDirectionDICOM": "COL",
    "InstitutionAddress": "Oxfordlaan_55_Maastricht_Limburg_NL_6229_EV",
    "InstitutionName": "Scannexus",
    "InstitutionalDepartmentName": "MRI_7T",
    "MRAcquisitionType": "2D",
    "MagneticFieldStrength": 6.98,
    "Manufacturer": "Siemens",
    "ManufacturersModelName": "Investigational_Device_7T",
    "Modality": "MR",
    "MultibandAccelerationFactor": 2,
    "ParallelReductionFactorInPlane": 3,
    "PartialFourier": 0.75,
    "PatientPosition": "HFS",
    "PercentPhaseFOV": 100,
    "PhaseEncodingDirection": "j",
    "PhaseEncodingSteps": 141,
    "PhaseResolution": 1,
    "PixelBandwidth": 1400,
    "ProcedureStepDescription": "FeDem_Faruk",
    "ProtocolName": "cmrr_mbep2d_bold_AP_run5",
    "PulseSequenceDetails": "%CustomerSeq%_cmrr_mbep2d_bold",
    "ReceiveCoilName": "32Ch_Head_7T",
    "ReconMatrixPE": 188,
    "RepetitionTime": 2.6,
    "SAR": 0.0850479,
    "ScanOptions": "PFP_FS",
    "ScanningSequence": "EP",
    "SequenceName": "epfid2d1_188",
    "SequenceVariant": "SK_SS",
    "SeriesDescription": "cmrr_mbep2d_bold_AP_run5",
    "SeriesNumber": 14,
    "ShimSetting": [
      97,
      -96,
      405,
      501,
      -175,
      -4,
      175,
      198
    ],
    "SliceThickness": 1.1,
    "SliceTiming": [
      0,
      0.735,
      0.0625,
      0.795,
      0.1225,
      0.8575,
      0.185,
      0.9175,
      0.245,
      0.98,
      0.3075,
      1.04,
      0.3675,
      1.1,
      0.43,
      1.1625,
      0.49,
      1.2225,
      0.55,
      1.285,
      0.6125,
      1.345,
      0.6725,
      0,
      0.735,
      0.0625,
      0.795,
      0.1225,
      0.8575,
      0.185,
      0.9175,
      0.245,
      0.98,
      0.3075,
      1.04,
      0.3675,
      1.1,
      0.43,
      1.1625,
      0.49,
      1.2225,
      0.55,
      1.285,
      0.6125,
      1.345,
      0.6725
    ],
    "SoftwareVersions": "syngo_MR_B17",
    "SpacingBetweenSlices": 1.1,
    "StationName": "MRC18930",
    "TaskName": "auditory",
    "TotalReadoutTime": 0.0511141,
    "TxRefAmp": 255,
    "dataset": "ds001942",
    "dcmmeta_affine": [
      [
        -1.09481942653656,
        -0.010712730698287487,
        0.043897829949855804,
        100.35326385498047
      ],
      [
        -0.04478750005364418,
        0.15087786316871643,
        -1.0885941982269287,
        33.094688415527344
      ],
      [
        -0.004580550827085972,
        1.0852546691894531,
        0.15177546441555023,
        -118.87760162353516
      ],
      [
        0.0,
        0.0,
        0.0,
        1.0
      ]
    ],
    "dcmmeta_reorient_transform": [
      [
        0.0,
        -1.0,
        0.0,
        187.0
      ],
      [
        1.0,
        0.0,
        0.0,
        0.0
      ],
      [
        0.0,
        0.0,
        1.0,
        0.0
      ],
      [
        0.0,
        0.0,
        0.0,
        1.0
      ]
    ],
    "dcmmeta_shape": [
      188,
      188,
      46,
      216
    ],
    "dcmmeta_slice_dim": 2,
    "dcmmeta_version": 0.6,
    "global": {
      "const": {
        "AcquisitionMatrix": [
          188,
          0,
          0,
          188
        ],
        "AngioFlag": "N",
        "BitsAllocated": 16,
        "BitsStored": 12,
        "Columns": 1316,
        "EchoNumbers": 1,
        "EchoTime": 20.0,
        "EchoTrainLength": 1,
        "FlipAngle": 80.0,
        "HighBit": 11,
        "ImageOrientationPatient": [
          0.99915556295306,
          0.04087402650456,
          -0.0041803082734,
          -0.0097766664984,
          0.13769435124752,
          -0.9904265154098
        ],
        "ImagePositionPatient": [
          -709.7861654161,
          -171.66411156359,
          698.73205770084
        ],
        "ImageType": [
          "ORIGINAL",
          "PRIMARY",
          "M",
          "MB",
          "ND",
          "MOSAIC"
        ],
        "ImagedNucleus": "1H",
        "ImagingFrequency": 297.205462,
        "InPlanePhaseEncodingDirection": "COL",
        "LargestImagePixelValue": 4095,
        "MRAcquisitionType": "2D",
        "MagneticFieldStrength": 6.98,
        "Manufacturer": "SIEMENS",
        "ManufacturerModelName": "Investigational_Device_7T",
        "Modality": "MR",
        "NumberOfAverages": 1.0,
        "NumberOfPhaseEncodingSteps": 141,
        "PercentPhaseFieldOfView": 100.0,
        "PercentSampling": 100.0,
        "PerformedProcedureStepStartTime": "164208.109000",
        "PhotometricInterpretation": "MONOCHROME2",
        "PixelBandwidth": 1400.0,
        "PixelRepresentation": 0,
        "PixelSpacing": [
          1.0957447290421,
          1.0957447290421
        ],
        "ProtocolName": "cmrr_mbep2d_bold_AP_run5",
        "RepetitionTime": 2600.0,
        "Rows": 1316,
        "SAR": 0.08504786212995,
        "SamplesPerPixel": 1,
        "ScanOptions": [
          "PFP",
          "FS"
        ],
        "ScanningSequence": "EP",
        "SequenceName": "epfid2d1_188",
        "SequenceVariant": [
          "SK",
          "SS"
        ],
        "SeriesDescription": "cmrr_mbep2d_bold_AP_run5",
        "SeriesNumber": 14,
        "SeriesTime": "175934.125000",
        "SliceLocation": -45.149179515982,
        "SliceThickness": 1.1000000238419,
        "SmallestImagePixelValue": 0,
        "SoftwareVersions": "syngo MR B17",
        "SpacingBetweenSlices": 1.1000000764209,
        "SpecificCharacterSet": "ISO_IR 100",
        "StudyID": "1",
        "StudyTime": "164208.062000",
        "TransmitCoilName": "32Ch_Head_7T",
        "VariableFlipAngleFlag": "N",
        "WindowCenterWidthExplanation": "Algo1",
        "dBdt": 0.0
      },
      "slices": {}
    },
    "modality": "bold",
    "run_id": 5,
    "session_id": "SES05",
    "subject_id": "S10",
    "task_id": "auditory",
    "time": {
      "samples": {
        "AcquisitionNumber": [
          1,
          2,
          3,
          4,
          5,
          6,
          7,
          8,
          9,
          10,
          11,
          12,
          13,
          14,
          15,
          16,
          17,
          18,
          19,
          20,
          21,
          22,
          23,
          24,
          25,
          26,
          27,
          28,
          29,
          30,
          31,
          32,
          33,
          34,
          35,
          36,
          37,
          38,
          39,
          40,
          41,
          42,
          43,
          44,
          45,
          46,
          47,
          48,
          49,
          50,
          51,
          52,
          53,
          54,
          55,
          56,
          57,
          58,
          59,
          60,
          61,
          62,
          63,
          64,
          65,
          66,
          67,
          68,
          69,
          70,
          71,
          72,
          73,
          74,
          75,
          76,
          77,
          78,
          79,
          80,
          81,
          82,
          83,
          84,
          85,
          86,
          87,
          88,
          89,
          90,
          91,
          92,
          93,
          94,
          95,
          96,
          97,
          98,
          99,
          100,
          101,
          102,
          103,
          104,
          105,
          106,
          107,
          108,
          109,
          110,
          111,
          112,
          113,
          114,
          115,
          116,
          117,
          118,
          119,
          120,
          121,
          122,
          123,
          124,
          125,
          126,
          127,
          128,
          129,
          130,
          131,
          132,
          133,
          134,
          135,
          136,
          137,
          138,
          139,
          140,
          141,
          142,
          143,
          144,
          145,
          146,
          147,
          148,
          149,
          150,
          151,
          152,
          153,
          154,
          155,
          156,
          157,
          158,
          159,
          160,
          161,
          162,
          163,
          164,
          165,
          166,
          167,
          168,
          169,
          170,
          171,
          172,
          173,
          174,
          175,
          176,
          177,
          178,
          179,
          180,
          181,
          182,
          183,
          184,
          185,
          186,
          187,
          188,
          189,
          190,
          191,
          192,
          193,
          194,
          195,
          196,
          197,
          198,
          199,
          200,
          201,
          202,
          203,
          204,
          205,
          206,
          207,
          208,
          209,
          210,
          211,
          212,
          213,
          214,
          215,
          216
        ],
        "AcquisitionTime": [
          "175836.667500",
          "175839.280000",
          "175841.890000",
          "175844.500000",
          "175847.110000",
          "175849.720000",
          "175852.332500",
          "175854.942500",
          "175857.552500",
          "175900.162500",
          "175902.772500",
          "175905.382500",
          "175907.995000",
          "175910.605000",
          "175913.215000",
          "175915.825000",
          "175918.435000",
          "175921.045000",
          "175923.657500",
          "175926.267500",
          "175928.877500",
          "175931.487500",
          "175934.097500",
          "175936.710000",
          "175939.320000",
          "175941.930000",
          "175944.540000",
          "175947.150000",
          "175949.760000",
          "175952.372500",
          "175954.982500",
          "175957.592500",
          "180000.202500",
          "180002.812500",
          "180005.422500",
          "180008.035000",
          "180010.645000",
          "180013.255000",
          "180015.865000",
          "180018.475000",
          "180021.087500",
          "180023.697500",
          "180026.307500",
          "180028.917500",
          "180031.527500",
          "180034.137500",
          "180036.750000",
          "180039.360000",
          "180041.970000",
          "180044.580000",
          "180047.190000",
          "180049.800000",
          "180052.412500",
          "180055.022500",
          "180057.632500",
          "180100.242500",
          "180102.852500",
          "180105.465000",
          "180108.075000",
          "180110.685000",
          "180113.295000",
          "180115.905000",
          "180118.515000",
          "180121.127500",
          "180123.737500",
          "180126.347500",
          "180128.957500",
          "180131.567500",
          "180134.177500",
          "180136.790000",
          "180139.400000",
          "180142.010000",
          "180144.620000",
          "180147.230000",
          "180149.842500",
          "180152.452500",
          "180155.062500",
          "180157.672500",
          "180200.282500",
          "180202.892500",
          "180205.505000",
          "180208.115000",
          "180210.725000",
          "180213.335000",
          "180215.945000",
          "180218.555000",
          "180221.167500",
          "180223.777500",
          "180226.387500",
          "180228.997500",
          "180231.607500",
          "180234.220000",
          "180236.830000",
          "180239.440000",
          "180242.050000",
          "180244.660000",
          "180247.270000",
          "180249.882500",
          "180252.492500",
          "180255.102500",
          "180257.712500",
          "180300.322500",
          "180302.932500",
          "180305.545000",
          "180308.155000",
          "180310.765000",
          "180313.375000",
          "180315.985000",
          "180318.597500",
          "180321.207500",
          "180323.817500",
          "180326.427500",
          "180329.037500",
          "180331.647500",
          "180334.260000",
          "180336.870000",
          "180339.480000",
          "180342.090000",
          "180344.700000",
          "180347.310000",
          "180349.922500",
          "180352.532500",
          "180355.142500",
          "180357.752500",
          "180400.362500",
          "180402.975000",
          "180405.585000",
          "180408.195000",
          "180410.805000",
          "180413.415000",
          "180416.025000",
          "180418.637500",
          "180421.247500",
          "180423.857500",
          "180426.467500",
          "180429.077500",
          "180431.687500",
          "180434.300000",
          "180436.910000",
          "180439.520000",
          "180442.130000",
          "180444.740000",
          "180447.352500",
          "180449.962500",
          "180452.572500",
          "180455.182500",
          "180457.792500",
          "180500.402500",
          "180503.015000",
          "180505.625000",
          "180508.235000",
          "180510.845000",
          "180513.455000",
          "180516.065000",
          "180518.677500",
          "180521.287500",
          "180523.897500",
          "180526.507500",
          "180529.117500",
          "180531.730000",
          "180534.340000",
          "180536.950000",
          "180539.560000",
          "180542.170000",
          "180544.780000",
          "180547.392500",
          "180550.002500",
          "180552.612500",
          "180555.222500",
          "180557.832500",
          "180600.442500",
          "180603.055000",
          "180605.665000",
          "180608.275000",
          "180610.885000",
          "180613.495000",
          "180616.107500",
          "180618.717500",
          "180621.327500",
          "180623.937500",
          "180626.547500",
          "180629.157500",
          "180631.770000",
          "180634.380000",
          "180636.990000",
          "180639.600000",
          "180642.210000",
          "180644.820000",
          "180647.432500",
          "180650.042500",
          "180652.652500",
          "180655.262500",
          "180657.872500",
          "180700.485000",
          "180703.095000",
          "180705.705000",
          "180708.315000",
          "180710.925000",
          "180713.535000",
          "180716.147500",
          "180718.757500",
          "180721.367500",
          "180723.977500",
          "180726.587500",
          "180729.200000",
          "180731.810000",
          "180734.420000",
          "180737.030000",
          "180739.640000",
          "180742.250000",
          "180744.862500",
          "180747.472500",
          "180750.082500",
          "180752.692500",
          "180755.302500",
          "180757.912500"
        ],
        "ContentTime": [
          "175934.125000",
          "175934.140000",
          "175934.140000",
          "175934.140000",
          "175934.140000",
          "175934.140000",
          "175934.140000",
          "175934.140000",
          "175934.156000",
          "175934.156000",
          "175934.156000",
          "175934.171000",
          "175934.171000",
          "175934.171000",
          "175934.171000",
          "175934.171000",
          "175934.171000",
          "175934.171000",
          "175934.171000",
          "175934.187000",
          "175934.187000",
          "180034.125000",
          "180034.125000",
          "180034.125000",
          "180034.140000",
          "180034.140000",
          "180034.140000",
          "180034.140000",
          "180034.156000",
          "180034.156000",
          "180034.156000",
          "180034.156000",
          "180034.156000",
          "180034.171000",
          "180034.171000",
          "180034.171000",
          "180034.171000",
          "180034.171000",
          "180034.171000",
          "180034.171000",
          "180034.187000",
          "180034.187000",
          "180034.187000",
          "180034.187000",
          "180134.125000",
          "180134.125000",
          "180134.140000",
          "180134.140000",
          "180134.140000",
          "180134.140000",
          "180134.140000",
          "180134.140000",
          "180134.156000",
          "180134.156000",
          "180134.156000",
          "180134.156000",
          "180134.156000",
          "180134.171000",
          "180134.171000",
          "180134.171000",
          "180134.171000",
          "180134.171000",
          "180134.171000",
          "180134.171000",
          "180134.171000",
          "180134.187000",
          "180134.187000",
          "180234.125000",
          "180234.125000",
          "180234.125000",
          "180234.140000",
          "180234.140000",
          "180234.140000",
          "180234.140000",
          "180234.140000",
          "180234.140000",
          "180234.156000",
          "180234.156000",
          "180234.156000",
          "180234.156000",
          "180234.156000",
          "180234.156000",
          "180234.156000",
          "180234.156000",
          "180234.171000",
          "180234.171000",
          "180234.171000",
          "180234.171000",
          "180234.171000",
          "180234.187000",
          "180334.125000",
          "180334.125000",
          "180334.125000",
          "180334.125000",
          "180334.140000",
          "180334.140000",
          "180334.140000",
          "180334.140000",
          "180334.140000",
          "180334.156000",
          "180334.156000",
          "180334.156000",
          "180334.156000",
          "180334.156000",
          "180334.156000",
          "180334.156000",
          "180334.171000",
          "180334.171000",
          "180334.171000",
          "180334.171000",
          "180334.171000",
          "180334.171000",
          "180334.171000",
          "180434.125000",
          "180434.125000",
          "180434.125000",
          "180434.125000",
          "180434.140000",
          "180434.140000",
          "180434.140000",
          "180434.140000",
          "180434.140000",
          "180434.140000",
          "180434.140000",
          "180434.156000",
          "180434.156000",
          "180434.156000",
          "180434.156000",
          "180434.156000",
          "180434.156000",
          "180434.171000",
          "180434.171000",
          "180434.171000",
          "180434.171000",
          "180434.171000",
          "180434.187000",
          "180534.125000",
          "180534.140000",
          "180534.140000",
          "180534.140000",
          "180534.140000",
          "180534.140000",
          "180534.140000",
          "180534.140000",
          "180534.156000",
          "180534.156000",
          "180534.156000",
          "180534.156000",
          "180534.156000",
          "180534.156000",
          "180534.171000",
          "180534.171000",
          "180534.171000",
          "180534.171000",
          "180534.171000",
          "180534.171000",
          "180534.171000",
          "180534.187000",
          "180534.187000",
          "180634.125000",
          "180634.125000",
          "180634.125000",
          "180634.125000",
          "180634.140000",
          "180634.140000",
          "180634.140000",
          "180634.140000",
          "180634.156000",
          "180634.156000",
          "180634.156000",
          "180634.156000",
          "180634.156000",
          "180634.156000",
          "180634.156000",
          "180634.171000",
          "180634.171000",
          "180634.171000",
          "180634.171000",
          "180634.171000",
          "180634.171000",
          "180634.171000",
          "180634.187000",
          "180734.125000",
          "180734.125000",
          "180734.156000",
          "180734.171000",
          "180734.171000",
          "180734.171000",
          "180734.187000",
          "180734.187000",
          "180734.187000",
          "180734.203000",
          "180734.203000",
          "180734.203000",
          "180734.203000",
          "180734.203000",
          "180734.203000",
          "180734.218000",
          "180734.218000",
          "180734.218000",
          "180734.218000",
          "180734.218000",
          "180734.234000",
          "180734.234000",
          "180734.234000",
          "180805.140000",
          "180805.140000",
          "180805.140000",
          "180805.140000",
          "180805.140000",
          "180805.156000",
          "180805.156000",
          "180805.156000",
          "180805.156000",
          "180805.156000",
          "180805.156000"
        ],
        "InstanceCreationTime": [
          "175934.125000",
          "175934.140000",
          "175934.140000",
          "175934.140000",
          "175934.140000",
          "175934.140000",
          "175934.140000",
          "175934.140000",
          "175934.156000",
          "175934.156000",
          "175934.156000",
          "175934.171000",
          "175934.171000",
          "175934.171000",
          "175934.171000",
          "175934.171000",
          "175934.171000",
          "175934.171000",
          "175934.171000",
          "175934.187000",
          "175934.187000",
          "180034.125000",
          "180034.125000",
          "180034.125000",
          "180034.140000",
          "180034.140000",
          "180034.140000",
          "180034.140000",
          "180034.156000",
          "180034.156000",
          "180034.156000",
          "180034.156000",
          "180034.156000",
          "180034.171000",
          "180034.171000",
          "180034.171000",
          "180034.171000",
          "180034.171000",
          "180034.171000",
          "180034.171000",
          "180034.187000",
          "180034.187000",
          "180034.187000",
          "180034.187000",
          "180134.125000",
          "180134.125000",
          "180134.140000",
          "180134.140000",
          "180134.140000",
          "180134.140000",
          "180134.140000",
          "180134.140000",
          "180134.156000",
          "180134.156000",
          "180134.156000",
          "180134.156000",
          "180134.156000",
          "180134.171000",
          "180134.171000",
          "180134.171000",
          "180134.171000",
          "180134.171000",
          "180134.171000",
          "180134.171000",
          "180134.171000",
          "180134.187000",
          "180134.187000",
          "180234.125000",
          "180234.125000",
          "180234.125000",
          "180234.140000",
          "180234.140000",
          "180234.140000",
          "180234.140000",
          "180234.140000",
          "180234.140000",
          "180234.156000",
          "180234.156000",
          "180234.156000",
          "180234.156000",
          "180234.156000",
          "180234.156000",
          "180234.156000",
          "180234.156000",
          "180234.171000",
          "180234.171000",
          "180234.171000",
          "180234.171000",
          "180234.171000",
          "180234.187000",
          "180334.125000",
          "180334.125000",
          "180334.125000",
          "180334.125000",
          "180334.140000",
          "180334.140000",
          "180334.140000",
          "180334.140000",
          "180334.140000",
          "180334.156000",
          "180334.156000",
          "180334.156000",
          "180334.156000",
          "180334.156000",
          "180334.156000",
          "180334.156000",
          "180334.171000",
          "180334.171000",
          "180334.171000",
          "180334.171000",
          "180334.171000",
          "180334.171000",
          "180334.171000",
          "180434.125000",
          "180434.125000",
          "180434.125000",
          "180434.125000",
          "180434.140000",
          "180434.140000",
          "180434.140000",
          "180434.140000",
          "180434.140000",
          "180434.140000",
          "180434.140000",
          "180434.156000",
          "180434.156000",
          "180434.156000",
          "180434.156000",
          "180434.156000",
          "180434.156000",
          "180434.171000",
          "180434.171000",
          "180434.171000",
          "180434.171000",
          "180434.171000",
          "180434.187000",
          "180534.125000",
          "180534.140000",
          "180534.140000",
          "180534.140000",
          "180534.140000",
          "180534.140000",
          "180534.140000",
          "180534.140000",
          "180534.156000",
          "180534.156000",
          "180534.156000",
          "180534.156000",
          "180534.156000",
          "180534.156000",
          "180534.171000",
          "180534.171000",
          "180534.171000",
          "180534.171000",
          "180534.171000",
          "180534.171000",
          "180534.171000",
          "180534.187000",
          "180534.187000",
          "180634.125000",
          "180634.125000",
          "180634.125000",
          "180634.125000",
          "180634.140000",
          "180634.140000",
          "180634.140000",
          "180634.140000",
          "180634.156000",
          "180634.156000",
          "180634.156000",
          "180634.156000",
          "180634.156000",
          "180634.156000",
          "180634.156000",
          "180634.171000",
          "180634.171000",
          "180634.171000",
          "180634.171000",
          "180634.171000",
          "180634.171000",
          "180634.171000",
          "180634.187000",
          "180734.125000",
          "180734.125000",
          "180734.156000",
          "180734.171000",
          "180734.171000",
          "180734.171000",
          "180734.187000",
          "180734.187000",
          "180734.187000",
          "180734.203000",
          "180734.203000",
          "180734.203000",
          "180734.203000",
          "180734.203000",
          "180734.203000",
          "180734.218000",
          "180734.218000",
          "180734.218000",
          "180734.218000",
          "180734.218000",
          "180734.234000",
          "180734.234000",
          "180734.234000",
          "180805.140000",
          "180805.140000",
          "180805.140000",
          "180805.140000",
          "180805.140000",
          "180805.156000",
          "180805.156000",
          "180805.156000",
          "180805.156000",
          "180805.156000",
          "180805.156000"
        ],
        "InstanceNumber": [
          1,
          2,
          3,
          4,
          5,
          6,
          7,
          8,
          9,
          10,
          11,
          12,
          13,
          14,
          15,
          16,
          17,
          18,
          19,
          20,
          21,
          22,
          23,
          24,
          25,
          26,
          27,
          28,
          29,
          30,
          31,
          32,
          33,
          34,
          35,
          36,
          37,
          38,
          39,
          40,
          41,
          42,
          43,
          44,
          45,
          46,
          47,
          48,
          49,
          50,
          51,
          52,
          53,
          54,
          55,
          56,
          57,
          58,
          59,
          60,
          61,
          62,
          63,
          64,
          65,
          66,
          67,
          68,
          69,
          70,
          71,
          72,
          73,
          74,
          75,
          76,
          77,
          78,
          79,
          80,
          81,
          82,
          83,
          84,
          85,
          86,
          87,
          88,
          89,
          90,
          91,
          92,
          93,
          94,
          95,
          96,
          97,
          98,
          99,
          100,
          101,
          102,
          103,
          104,
          105,
          106,
          107,
          108,
          109,
          110,
          111,
          112,
          113,
          114,
          115,
          116,
          117,
          118,
          119,
          120,
          121,
          122,
          123,
          124,
          125,
          126,
          127,
          128,
          129,
          130,
          131,
          132,
          133,
          134,
          135,
          136,
          137,
          138,
          139,
          140,
          141,
          142,
          143,
          144,
          145,
          146,
          147,
          148,
          149,
          150,
          151,
          152,
          153,
          154,
          155,
          156,
          157,
          158,
          159,
          160,
          161,
          162,
          163,
          164,
          165,
          166,
          167,
          168,
          169,
          170,
