{
  "aor": 0.0005625116279069768,
  "aqi": 0.011949317395348838,
  "bids_meta": {
    "AcquisitionMatrixPE": 188,
    "AcquisitionNumber": 1,
    "AcquisitionTime": "18:09:12.705000",
    "BandwidthPerPixelPhaseEncode": 19.46,
    "BaseResolution": 188,
    "ConversionSoftware": "dcm2niix",
    "ConversionSoftwareVersion": "v1.0.20180606 GCC4.8.5",
    "DelayTime": 1.2,
    "DerivedVendorReportedEchoSpacing": 0.000820013,
    "DeviceSerialNumber": "18930",
    "DwellTime": 1.9e-06,
    "EchoTime": 0.02,
    "EffectiveEchoSpacing": 0.000273338,
    "FlipAngle": 80,
    "ImageComments": "Unaliased_MB2_PE2",
    "ImageOrientationPatientDICOM": [
      0.999156,
      0.040874,
      -0.00418031,
      -0.00977667,
      0.137694,
      -0.990427
    ],
    "ImageType": [
      "ORIGINAL",
      "PRIMARY",
      "M",
      "MB",
      "ND",
      "MOSAIC"
    ],
    "InPlanePhaseEncodingDirectionDICOM": "COL",
    "InstitutionAddress": "Oxfordlaan_55_Maastricht_Limburg_NL_6229_EV",
    "InstitutionName": "Scannexus",
    "InstitutionalDepartmentName": "MRI_7T",
    "MRAcquisitionType": "2D",
    "MagneticFieldStrength": 6.98,
    "Manufacturer": "Siemens",
    "ManufacturersModelName": "Investigational_Device_7T",
    "Modality": "MR",
    "MultibandAccelerationFactor": 2,
    "ParallelReductionFactorInPlane": 3,
    "PartialFourier": 0.75,
    "PatientPosition": "HFS",
    "PercentPhaseFOV": 100,
    "PhaseEncodingDirection": "j",
    "PhaseEncodingSteps": 141,
    "PhaseResolution": 1,
    "PixelBandwidth": 1400,
    "ProcedureStepDescription": "FeDem_Faruk",
    "ProtocolName": "cmrr_mbep2d_bold_AP_run6",
    "PulseSequenceDetails": "%CustomerSeq%_cmrr_mbep2d_bold",
    "ReceiveCoilName": "32Ch_Head_7T",
    "ReconMatrixPE": 188,
    "RepetitionTime": 2.6,
    "SAR": 0.0851748,
    "ScanOptions": "PFP_FS",
    "ScanningSequence": "EP",
    "SequenceName": "epfid2d1_188",
    "SequenceVariant": "SK_SS",
    "SeriesDescription": "cmrr_mbep2d_bold_AP_run6",
    "SeriesNumber": 15,
    "ShimSetting": [
      97,
      -96,
      405,
      501,
      -175,
      -4,
      175,
      198
    ],
    "SliceThickness": 1.1,
    "SliceTiming": [
      0,
      0.7325,
      0.06,
      0.7925,
      0.1225,
      0.855,
      0.1825,
      0.915,
      0.2425,
      0.9775,
      0.305,
      1.0375,
      0.365,
      1.1,
      0.4275,
      1.16,
      0.4875,
      1.2225,
      0.55,
      1.2825,
      0.61,
      1.3425,
      0.6725,
      0,
      0.7325,
      0.06,
      0.7925,
      0.1225,
      0.855,
      0.1825,
      0.915,
      0.2425,
      0.9775,
      0.305,
      1.0375,
      0.365,
      1.1,
      0.4275,
      1.16,
      0.4875,
      1.2225,
      0.55,
      1.2825,
      0.61,
      1.3425,
      0.6725
    ],
    "SoftwareVersions": "syngo_MR_B17",
    "SpacingBetweenSlices": 1.1,
    "StationName": "MRC18930",
    "TaskName": "auditory",
    "TotalReadoutTime": 0.0511141,
    "TxRefAmp": 255,
    "dataset": "ds001942",
    "dcmmeta_affine": [
      [
        -1.09481942653656,
        -0.010712730698287487,
        0.043897829949855804,
        100.35326385498047
      ],
      [
        -0.04478750005364418,
        0.15087786316871643,
        -1.0885941982269287,
        33.094688415527344
      ],
      [
        -0.004580550827085972,
        1.0852546691894531,
        0.15177546441555023,
        -118.87760162353516
      ],
      [
        0.0,
        0.0,
        0.0,
        1.0
      ]
    ],
    "dcmmeta_reorient_transform": [
      [
        0.0,
        -1.0,
        0.0,
        187.0
      ],
      [
        1.0,
        0.0,
        0.0,
        0.0
      ],
      [
        0.0,
        0.0,
        1.0,
        0.0
      ],
      [
        0.0,
        0.0,
        0.0,
        1.0
      ]
    ],
    "dcmmeta_shape": [
      188,
      188,
      46,
      216
    ],
    "dcmmeta_slice_dim": 2,
    "dcmmeta_version": 0.6,
    "global": {
      "const": {
        "AcquisitionMatrix": [
          188,
          0,
          0,
          188
        ],
        "AngioFlag": "N",
        "BitsAllocated": 16,
        "BitsStored": 12,
        "Columns": 1316,
        "EchoNumbers": 1,
        "EchoTime": 20.0,
        "EchoTrainLength": 1,
        "FlipAngle": 80.0,
        "HighBit": 11,
        "ImageOrientationPatient": [
          0.99915556295306,
          0.04087402650456,
          -0.0041803082734,
          -0.0097766664984,
          0.13769435124752,
          -0.9904265154098
        ],
        "ImagePositionPatient": [
          -709.7861654161,
          -171.66411156359,
          698.73205770084
        ],
        "ImageType": [
          "ORIGINAL",
          "PRIMARY",
          "M",
          "MB",
          "ND",
          "MOSAIC"
        ],
        "ImagedNucleus": "1H",
        "ImagingFrequency": 297.205465,
        "InPlanePhaseEncodingDirection": "COL",
        "LargestImagePixelValue": 4095,
        "MRAcquisitionType": "2D",
        "MagneticFieldStrength": 6.98,
        "Manufacturer": "SIEMENS",
        "ManufacturerModelName": "Investigational_Device_7T",
        "Modality": "MR",
        "NumberOfAverages": 1.0,
        "NumberOfPhaseEncodingSteps": 141,
        "PercentPhaseFieldOfView": 100.0,
        "PercentSampling": 100.0,
        "PerformedProcedureStepStartTime": "164208.109000",
        "PhotometricInterpretation": "MONOCHROME2",
        "PixelBandwidth": 1400.0,
        "PixelRepresentation": 0,
        "PixelSpacing": [
          1.0957447290421,
          1.0957447290421
        ],
        "ProtocolName": "cmrr_mbep2d_bold_AP_run6",
        "RepetitionTime": 2600.0,
        "Rows": 1316,
        "SAR": 0.08517483227173,
        "SamplesPerPixel": 1,
        "ScanOptions": [
          "PFP",
          "FS"
        ],
        "ScanningSequence": "EP",
        "SequenceName": "epfid2d1_188",
        "SequenceVariant": [
          "SK",
          "SS"
        ],
        "SeriesDescription": "cmrr_mbep2d_bold_AP_run6",
        "SeriesNumber": 15,
        "SeriesTime": "181014.453000",
        "SliceLocation": -45.149179515982,
        "SliceThickness": 1.1000000238419,
        "SmallestImagePixelValue": 0,
        "SoftwareVersions": "syngo MR B17",
        "SpacingBetweenSlices": 1.1000000764209,
        "SpecificCharacterSet": "ISO_IR 100",
        "StudyID": "1",
        "StudyTime": "164208.062000",
        "TransmitCoilName": "32Ch_Head_7T",
        "VariableFlipAngleFlag": "N",
        "WindowCenterWidthExplanation": "Algo1",
        "dBdt": 0.0
      },
      "slices": {}
    },
    "modality": "bold",
    "run_id": 6,
    "session_id": "SES05",
    "subject_id": "S10",
    "task_id": "auditory",
    "time": {
      "samples": {
        "AcquisitionNumber": [
          1,
          2,
          3,
          4,
          5,
          6,
          7,
          8,
          9,
          10,
          11,
          12,
          13,
          14,
          15,
          16,
          17,
          18,
          19,
          20,
          21,
          22,
          23,
          24,
          25,
          26,
          27,
          28,
          29,
          30,
          31,
          32,
          33,
          34,
          35,
          36,
          37,
          38,
          39,
          40,
          41,
          42,
          43,
          44,
          45,
          46,
          47,
          48,
          49,
          50,
          51,
          52,
          53,
          54,
          55,
          56,
          57,
          58,
          59,
          60,
          61,
          62,
          63,
          64,
          65,
          66,
          67,
          68,
          69,
          70,
          71,
          72,
          73,
          74,
          75,
          76,
          77,
          78,
          79,
          80,
          81,
          82,
          83,
          84,
          85,
          86,
          87,
          88,
          89,
          90,
          91,
          92,
          93,
          94,
          95,
          96,
          97,
          98,
          99,
          100,
          101,
          102,
          103,
          104,
          105,
          106,
          107,
          108,
          109,
          110,
          111,
          112,
          113,
          114,
          115,
          116,
          117,
          118,
          119,
          120,
          121,
          122,
          123,
          124,
          125,
          126,
          127,
          128,
          129,
          130,
          131,
          132,
          133,
          134,
          135,
          136,
          137,
          138,
          139,
          140,
          141,
          142,
          143,
          144,
          145,
          146,
          147,
          148,
          149,
          150,
          151,
          152,
          153,
          154,
          155,
          156,
          157,
          158,
          159,
          160,
          161,
          162,
          163,
          164,
          165,
          166,
          167,
          168,
          169,
          170,
          171,
          172,
          173,
          174,
          175,
          176,
          177,
          178,
          179,
          180,
          181,
          182,
          183,
          184,
          185,
          186,
          187,
          188,
          189,
          190,
          191,
          192,
          193,
          194,
          195,
          196,
          197,
          198,
          199,
          200,
          201,
          202,
          203,
          204,
          205,
          206,
          207,
          208,
          209,
          210,
          211,
          212,
          213,
          214,
          215,
          216
        ],
        "AcquisitionTime": [
          "180912.705000",
          "180915.315000",
          "180917.925000",
          "180920.535000",
          "180923.145000",
          "180925.757500",
          "180928.367500",
          "180930.977500",
          "180933.587500",
          "180936.197500",
          "180938.807500",
          "180941.420000",
          "180944.030000",
          "180946.640000",
          "180949.250000",
          "180951.860000",
          "180954.472500",
          "180957.082500",
          "180959.692500",
          "181002.302500",
          "181004.912500",
          "181007.522500",
          "181010.135000",
          "181012.745000",
          "181015.355000",
          "181017.965000",
          "181020.575000",
          "181023.185000",
          "181025.797500",
          "181028.407500",
          "181031.017500",
          "181033.627500",
          "181036.237500",
          "181038.850000",
          "181041.460000",
          "181044.070000",
          "181046.680000",
          "181049.290000",
          "181051.900000",
          "181054.512500",
          "181057.122500",
          "181059.732500",
          "181102.342500",
          "181104.952500",
          "181107.565000",
          "181110.175000",
          "181112.785000",
          "181115.395000",
          "181118.005000",
          "181120.615000",
          "181123.227500",
          "181125.837500",
          "181128.447500",
          "181131.057500",
          "181133.667500",
          "181136.277500",
          "181138.890000",
          "181141.500000",
          "181144.110000",
          "181146.720000",
          "181149.330000",
          "181151.942500",
          "181154.552500",
          "181157.162500",
          "181159.772500",
          "181202.382500",
          "181204.992500",
          "181207.605000",
          "181210.215000",
          "181212.825000",
          "181215.435000",
          "181218.045000",
          "181220.655000",
          "181223.267500",
          "181225.877500",
          "181228.487500",
          "181231.097500",
          "181233.707500",
          "181236.320000",
          "181238.930000",
          "181241.540000",
          "181244.150000",
          "181246.760000",
          "181249.370000",
          "181251.982500",
          "181254.592500",
          "181257.202500",
          "181259.812500",
          "181302.422500",
          "181305.032500",
          "181307.645000",
          "181310.255000",
          "181312.865000",
          "181315.475000",
          "181318.085000",
          "181320.697500",
          "181323.307500",
          "181325.917500",
          "181328.527500",
          "181331.137500",
          "181333.747500",
          "181336.360000",
          "181338.970000",
          "181341.580000",
          "181344.190000",
          "181346.800000",
          "181349.410000",
          "181352.022500",
          "181354.632500",
          "181357.242500",
          "181359.852500",
          "181402.462500",
          "181405.075000",
          "181407.685000",
          "181410.295000",
          "181412.905000",
          "181415.515000",
          "181418.125000",
          "181420.737500",
          "181423.347500",
          "181425.957500",
          "181428.567500",
          "181431.177500",
          "181433.787500",
          "181436.400000",
          "181439.010000",
          "181441.620000",
          "181444.230000",
          "181446.840000",
          "181449.452500",
          "181452.062500",
          "181454.672500",
          "181457.282500",
          "181459.892500",
          "181502.502500",
          "181505.115000",
          "181507.725000",
          "181510.335000",
          "181512.945000",
          "181515.555000",
          "181518.165000",
          "181520.777500",
          "181523.387500",
          "181525.997500",
          "181528.607500",
          "181531.217500",
          "181533.830000",
          "181536.440000",
          "181539.050000",
          "181541.660000",
          "181544.270000",
          "181546.880000",
          "181549.492500",
          "181552.102500",
          "181554.712500",
          "181557.322500",
          "181559.932500",
          "181602.542500",
          "181605.155000",
          "181607.765000",
          "181610.375000",
          "181612.985000",
          "181615.595000",
          "181618.207500",
          "181620.817500",
          "181623.427500",
          "181626.037500",
          "181628.647500",
          "181631.257500",
          "181633.870000",
          "181636.480000",
          "181639.090000",
          "181641.700000",
          "181644.310000",
          "181646.920000",
          "181649.532500",
          "181652.142500",
          "181654.752500",
          "181657.362500",
          "181659.972500",
          "181702.585000",
          "181705.195000",
          "181707.805000",
          "181710.415000",
          "181713.025000",
          "181715.635000",
          "181718.247500",
          "181720.857500",
          "181723.467500",
          "181726.077500",
          "181728.687500",
          "181731.297500",
          "181733.910000",
          "181736.520000",
          "181739.130000",
          "181741.740000",
          "181744.350000",
          "181746.962500",
          "181749.572500",
          "181752.182500",
          "181754.792500",
          "181757.402500",
          "181800.012500",
          "181802.625000",
          "181805.235000",
          "181807.845000",
          "181810.455000",
          "181813.065000",
          "181815.675000",
          "181818.287500",
          "181820.897500",
          "181823.507500",
          "181826.117500",
          "181828.727500",
          "181831.340000",
          "181833.950000"
        ],
        "ContentTime": [
          "181014.468000",
          "181014.468000",
          "181014.468000",
          "181014.468000",
          "181014.468000",
          "181014.468000",
          "181014.468000",
          "181014.484000",
          "181014.484000",
          "181014.500000",
          "181014.500000",
          "181014.500000",
          "181014.500000",
          "181014.500000",
          "181014.515000",
          "181014.515000",
          "181014.515000",
          "181014.515000",
          "181014.515000",
          "181014.515000",
          "181014.531000",
          "181014.531000",
          "181014.531000",
          "181114.453000",
          "181114.453000",
          "181114.453000",
          "181114.468000",
          "181114.468000",
          "181114.468000",
          "181114.468000",
          "181114.468000",
          "181114.468000",
          "181114.468000",
          "181114.484000",
          "181114.484000",
          "181114.484000",
          "181114.484000",
          "181114.484000",
          "181114.484000",
          "181114.484000",
          "181114.484000",
          "181114.500000",
          "181114.500000",
          "181114.500000",
          "181114.500000",
          "181114.500000",
          "181214.453000",
          "181214.453000",
          "181214.453000",
          "181214.468000",
          "181214.468000",
          "181214.484000",
          "181214.484000",
          "181214.484000",
          "181214.484000",
          "181214.484000",
          "181214.484000",
          "181214.500000",
          "181214.500000",
          "181214.500000",
          "181214.500000",
          "181214.500000",
          "181214.500000",
          "181214.515000",
          "181214.515000",
          "181214.515000",
          "181214.515000",
          "181214.515000",
          "181214.515000",
          "181314.453000",
          "181314.453000",
          "181314.453000",
          "181314.468000",
          "181314.468000",
          "181314.468000",
          "181314.468000",
          "181314.468000",
          "181314.468000",
          "181314.468000",
          "181314.484000",
          "181314.484000",
          "181314.484000",
          "181314.484000",
          "181314.484000",
          "181314.484000",
          "181314.484000",
          "181314.500000",
          "181314.500000",
          "181314.500000",
          "181314.500000",
          "181314.500000",
          "181314.500000",
          "181414.453000",
          "181414.453000",
          "181414.453000",
          "181414.453000",
          "181414.468000",
          "181414.468000",
          "181414.468000",
          "181414.468000",
          "181414.468000",
          "181414.468000",
          "181414.468000",
          "181414.484000",
          "181414.484000",
          "181414.484000",
          "181414.484000",
          "181414.484000",
          "181414.484000",
          "181414.484000",
          "181414.484000",
          "181414.500000",
          "181414.500000",
          "181414.500000",
          "181414.500000",
          "181454.453000",
          "181454.453000",
          "181454.453000",
          "181454.468000",
          "181454.468000",
          "181454.468000",
          "181454.468000",
          "181454.484000",
          "181454.484000",
          "181454.484000",
          "181454.484000",
          "181454.500000",
          "181454.500000",
          "181454.500000",
          "181454.500000",
          "181554.453000",
          "181554.453000",
          "181554.468000",
          "181554.468000",
          "181554.468000",
          "181554.468000",
          "181554.468000",
          "181554.468000",
          "181554.468000",
          "181554.484000",
          "181554.484000",
          "181554.484000",
          "181554.484000",
          "181554.484000",
          "181554.484000",
          "181554.484000",
          "181554.500000",
          "181554.500000",
          "181554.500000",
          "181554.500000",
          "181554.500000",
          "181554.500000",
          "181554.500000",
          "181654.453000",
          "181654.468000",
          "181654.468000",
          "181654.468000",
          "181654.468000",
          "181654.468000",
          "181654.468000",
          "181654.468000",
          "181654.468000",
          "181654.484000",
          "181654.484000",
          "181654.484000",
          "181654.484000",
          "181654.484000",
          "181654.484000",
          "181654.484000",
          "181654.500000",
          "181654.500000",
          "181654.500000",
          "181654.500000",
          "181654.500000",
          "181654.500000",
          "181654.500000",
          "181754.453000",
          "181754.453000",
          "181754.468000",
          "181754.468000",
          "181754.468000",
          "181754.468000",
          "181754.468000",
          "181754.468000",
          "181754.468000",
          "181754.484000",
          "181754.484000",
          "181754.484000",
          "181754.484000",
          "181754.500000",
          "181754.500000",
          "181754.500000",
          "181754.500000",
          "181754.500000",
          "181754.500000",
          "181754.515000",
          "181754.515000",
          "181754.515000",
          "181754.515000",
          "181754.515000",
          "181841.031000",
          "181841.046000",
          "181841.046000",
          "181841.046000",
          "181841.046000",
          "181841.046000",
          "181841.046000",
          "181841.046000",
          "181841.062000",
          "181841.062000",
          "181841.062000",
          "181841.062000",
          "181841.062000",
          "181841.062000",
          "181841.078000",
          "181841.078000"
        ],
        "InstanceCreationTime": [
          "181014.468000",
          "181014.468000",
          "181014.468000",
          "181014.468000",
          "181014.468000",
          "181014.468000",
          "181014.468000",
          "181014.484000",
          "181014.484000",
          "181014.500000",
          "181014.500000",
          "181014.500000",
          "181014.500000",
          "181014.500000",
          "181014.515000",
          "181014.515000",
          "181014.515000",
          "181014.515000",
          "181014.515000",
          "181014.515000",
          "181014.531000",
          "181014.531000",
          "181014.531000",
          "181114.453000",
          "181114.453000",
          "181114.453000",
          "181114.468000",
          "181114.468000",
          "181114.468000",
          "181114.468000",
          "181114.468000",
          "181114.468000",
          "181114.468000",
          "181114.484000",
          "181114.484000",
          "181114.484000",
          "181114.484000",
          "181114.484000",
          "181114.484000",
          "181114.484000",
          "181114.484000",
          "181114.500000",
          "181114.500000",
          "181114.500000",
          "181114.500000",
          "181114.500000",
          "181214.453000",
          "181214.453000",
          "181214.453000",
          "181214.468000",
          "181214.468000",
          "181214.484000",
          "181214.484000",
          "181214.484000",
          "181214.484000",
          "181214.484000",
          "181214.484000",
          "181214.500000",
          "181214.500000",
          "181214.500000",
          "181214.500000",
          "181214.500000",
          "181214.500000",
          "181214.515000",
          "181214.515000",
          "181214.515000",
          "181214.515000",
          "181214.515000",
          "181214.515000",
          "181314.453000",
          "181314.453000",
          "181314.453000",
          "181314.468000",
          "181314.468000",
          "181314.468000",
          "181314.468000",
          "181314.468000",
          "181314.468000",
          "181314.468000",
          "181314.484000",
          "181314.484000",
          "181314.484000",
          "181314.484000",
          "181314.484000",
          "181314.484000",
          "181314.484000",
          "181314.500000",
          "181314.500000",
          "181314.500000",
          "181314.500000",
          "181314.500000",
          "181314.500000",
          "181414.453000",
          "181414.453000",
          "181414.453000",
          "181414.453000",
          "181414.468000",
          "181414.468000",
          "181414.468000",
          "181414.468000",
          "181414.468000",
          "181414.468000",
          "181414.468000",
          "181414.484000",
          "181414.484000",
          "181414.484000",
          "181414.484000",
          "181414.484000",
          "181414.484000",
          "181414.484000",
          "181414.484000",
          "181414.500000",
          "181414.500000",
          "181414.500000",
          "181414.500000",
          "181454.453000",
          "181454.453000",
          "181454.453000",
          "181454.468000",
          "181454.468000",
          "181454.468000",
          "181454.468000",
          "181454.484000",
          "181454.484000",
          "181454.484000",
          "181454.484000",
          "181454.500000",
          "181454.500000",
          "181454.500000",
          "181454.500000",
          "181554.453000",
          "181554.453000",
          "181554.468000",
          "181554.468000",
          "181554.468000",
          "181554.468000",
          "181554.468000",
          "181554.468000",
          "181554.468000",
          "181554.484000",
          "181554.484000",
          "181554.484000",
          "181554.484000",
          "181554.484000",
          "181554.484000",
          "181554.484000",
          "181554.500000",
          "181554.500000",
          "181554.500000",
          "181554.500000",
          "181554.500000",
          "181554.500000",
          "181554.500000",
          "181654.453000",
          "181654.468000",
          "181654.468000",
          "181654.468000",
          "181654.468000",
          "181654.468000",
          "181654.468000",
          "181654.468000",
          "181654.468000",
          "181654.484000",
          "181654.484000",
          "181654.484000",
          "181654.484000",
          "181654.484000",
          "181654.484000",
          "181654.484000",
          "181654.500000",
          "181654.500000",
          "181654.500000",
          "181654.500000",
          "181654.500000",
          "181654.500000",
          "181654.500000",
          "181754.453000",
          "181754.453000",
          "181754.468000",
          "181754.468000",
          "181754.468000",
          "181754.468000",
          "181754.468000",
          "181754.468000",
          "181754.468000",
          "181754.484000",
          "181754.484000",
          "181754.484000",
          "181754.484000",
          "181754.500000",
          "181754.500000",
          "181754.500000",
          "181754.500000",
          "181754.500000",
          "181754.500000",
          "181754.515000",
          "181754.515000",
          "181754.515000",
          "181754.515000",
          "181754.515000",
          "181841.031000",
          "181841.046000",
          "181841.046000",
          "181841.046000",
          "181841.046000",
          "181841.046000",
          "181841.046000",
          "181841.046000",
          "181841.062000",
          "181841.062000",
          "181841.062000",
          "181841.062000",
          "181841.062000",
          "181841.062000",
          "181841.078000",
          "181841.078000"
        ],
        "InstanceNumber": [
          1,
          2,
          3,
          4,
          5,
          6,
          7,
          8,
          9,
          10,
          11,
          12,
          13,
          14,
          15,
          16,
          17,
          18,
          19,
          20,
          21,
          22,
          23,
          24,
          25,
          26,
          27,
          28,
          29,
          30,
          31,
          32,
          33,
          34,
          35,
          36,
          37,
          38,
          39,
          40,
          41,
          42,
          43,
          44,
          45,
          46,
          47,
          48,
          49,
          50,
          51,
          52,
          53,
          54,
          55,
          56,
          57,
          58,
          59,
          60,
          61,
          62,
          63,
          64,
          65,
          66,
          67,
          68,
          69,
          70,
          71,
          72,
          73,
          74,
          75,
          76,
          77,
          78,
          79,
          80,
          81,
          82,
          83,
          84,
          85,
          86,
          87,
          88,
          89,
          90,
          91,
          92,
          93,
          94,
          95,
          96,
          97,
          98,
          99,
          100,
          101,
          102,
          103,
          104,
          105,
          106,
          107,
          108,
          109,
          110,
          111,
          112,
          113,
          114,
          115,
          116,
          117,
          118,
          119,
          120,
          121,
          122,
          123,
          124,
          125,
          126,
          127,
          128,
          129,
          130,
          131,
          132,
          133,
          134,
          135,
          136,
          137,
          138,
          139,
          140,
          141,
          142,
          143,
          144,
          145,
          146,
          147,
          148,
          149,
          150,
          151,
          152,
          153,
          154,
          155,
          156,
          157,
          158,
          159,
          160,
          161,
          162,
          163,
          164,
          165,
          166,
          167,
          168,
          169,
          170,
