{
  "aor": 0.0003919444444444445,
  "aqi": 0.012225553703703703,
  "bids_meta": {
    "AcquisitionMatrixPE": 188,
    "AcquisitionNumber": 1,
    "AcquisitionTime": "17:47:58.032500",
    "BandwidthPerPixelPhaseEncode": 19.46,
    "BaseResolution": 188,
    "CogAtlasID": "TODO",
    "ConversionSoftware": "dcm2niix",
    "ConversionSoftwareVersion": "v1.0.20180606 GCC4.8.5",
    "DelayTime": 1.2,
    "DerivedVendorReportedEchoSpacing": 0.000820013,
    "DeviceSerialNumber": "18930",
    "DwellTime": 1.9e-06,
    "EchoTime": 0.02,
    "EffectiveEchoSpacing": 0.000273338,
    "FlipAngle": 80,
    "ImageComments": "Unaliased_MB2_PE2",
    "ImageOrientationPatientDICOM": [
      0.999156,
      0.040874,
      -0.00418031,
      -0.00977667,
      0.137694,
      -0.990427
    ],
    "ImageType": [
      "ORIGINAL",
      "PRIMARY",
      "M",
      "MB",
      "ND",
      "MOSAIC"
    ],
    "InPlanePhaseEncodingDirectionDICOM": "COL",
    "InstitutionAddress": "Oxfordlaan_55_Maastricht_Limburg_NL_6229_EV",
    "InstitutionName": "Scannexus",
    "InstitutionalDepartmentName": "MRI_7T",
    "MRAcquisitionType": "2D",
    "MagneticFieldStrength": 6.98,
    "Manufacturer": "Siemens",
    "ManufacturersModelName": "Investigational_Device_7T",
    "Modality": "MR",
    "MultibandAccelerationFactor": 2,
    "ParallelReductionFactorInPlane": 3,
    "PartialFourier": 0.75,
    "PatientPosition": "HFS",
    "PercentPhaseFOV": 100,
    "PhaseEncodingDirection": "j",
    "PhaseEncodingSteps": 141,
    "PhaseResolution": 1,
    "PixelBandwidth": 1400,
    "ProcedureStepDescription": "FeDem_Faruk",
    "ProtocolName": "cmrr_mbep2d_bold_AP_run4",
    "PulseSequenceDetails": "%CustomerSeq%_cmrr_mbep2d_bold",
    "ReceiveCoilName": "32Ch_Head_7T",
    "ReconMatrixPE": 188,
    "RepetitionTime": 2.6,
    "SAR": 0.0851078,
    "ScanOptions": "PFP_FS",
    "ScanningSequence": "EP",
    "SequenceName": "epfid2d1_188",
    "SequenceVariant": "SK_SS",
    "SeriesDescription": "cmrr_mbep2d_bold_AP_run4",
    "SeriesNumber": 13,
    "ShimSetting": [
      97,
      -96,
      405,
      501,
      -175,
      -4,
      175,
      198
    ],
    "SliceThickness": 1.1,
    "SliceTiming": [
      0,
      0.7325,
      0.06,
      0.7925,
      0.12,
      0.855,
      0.1825,
      0.915,
      0.2425,
      0.9775,
      0.305,
      1.0375,
      0.365,
      1.1,
      0.4275,
      1.16,
      0.4875,
      1.22,
      0.55,
      1.2825,
      0.61,
      1.3425,
      0.67,
      0,
      0.7325,
      0.06,
      0.7925,
      0.12,
      0.855,
      0.1825,
      0.915,
      0.2425,
      0.9775,
      0.305,
      1.0375,
      0.365,
      1.1,
      0.4275,
      1.16,
      0.4875,
      1.22,
      0.55,
      1.2825,
      0.61,
      1.3425,
      0.67
    ],
    "SoftwareVersions": "syngo_MR_B17",
    "SpacingBetweenSlices": 1.1,
    "StationName": "MRC18930",
    "TaskName": "auditory",
    "TotalReadoutTime": 0.0511141,
    "TxRefAmp": 255,
    "dataset": "ds001942",
    "dcmmeta_affine": [
      [
        -1.09481942653656,
        -0.010712730698287487,
        0.043897829949855804,
        100.35326385498047
      ],
      [
        -0.04478750005364418,
        0.15087786316871643,
        -1.0885941982269287,
        33.094688415527344
      ],
      [
        -0.004580550827085972,
        1.0852546691894531,
        0.15177546441555023,
        -118.87760162353516
      ],
      [
        0.0,
        0.0,
        0.0,
        1.0
      ]
    ],
    "dcmmeta_reorient_transform": [
      [
        0.0,
        -1.0,
        0.0,
        187.0
      ],
      [
        1.0,
        0.0,
        0.0,
        0.0
      ],
      [
        0.0,
        0.0,
        1.0,
        0.0
      ],
      [
        0.0,
        0.0,
        0.0,
        1.0
      ]
    ],
    "dcmmeta_shape": [
      188,
      188,
      46,
      216
    ],
    "dcmmeta_slice_dim": 2,
    "dcmmeta_version": 0.6,
    "global": {
      "const": {
        "AcquisitionMatrix": [
          188,
          0,
          0,
          188
        ],
        "AngioFlag": "N",
        "BitsAllocated": 16,
        "BitsStored": 12,
        "Columns": 1316,
        "EchoNumbers": 1,
        "EchoTime": 20.0,
        "EchoTrainLength": 1,
        "FlipAngle": 80.0,
        "HighBit": 11,
        "ImageOrientationPatient": [
          0.99915556295306,
          0.04087402650456,
          -0.0041803082734,
          -0.0097766664984,
          0.13769435124752,
          -0.9904265154098
        ],
        "ImagePositionPatient": [
          -709.7861654161,
          -171.66411156359,
          698.73205770084
        ],
        "ImageType": [
          "ORIGINAL",
          "PRIMARY",
          "M",
          "MB",
          "ND",
          "MOSAIC"
        ],
        "ImagedNucleus": "1H",
        "ImagingFrequency": 297.205459,
        "InPlanePhaseEncodingDirection": "COL",
        "LargestImagePixelValue": 4095,
        "MRAcquisitionType": "2D",
        "MagneticFieldStrength": 6.98,
        "Manufacturer": "SIEMENS",
        "ManufacturerModelName": "Investigational_Device_7T",
        "Modality": "MR",
        "NumberOfAverages": 1.0,
        "NumberOfPhaseEncodingSteps": 141,
        "PercentPhaseFieldOfView": 100.0,
        "PercentSampling": 100.0,
        "PerformedProcedureStepStartTime": "164208.109000",
        "PhotometricInterpretation": "MONOCHROME2",
        "PixelBandwidth": 1400.0,
        "PixelRepresentation": 0,
        "PixelSpacing": [
          1.0957447290421,
          1.0957447290421
        ],
        "ProtocolName": "cmrr_mbep2d_bold_AP_run4",
        "RepetitionTime": 2600.0,
        "Rows": 1316,
        "SAR": 0.08510781097969,
        "SamplesPerPixel": 1,
        "ScanOptions": [
          "PFP",
          "FS"
        ],
        "ScanningSequence": "EP",
        "SequenceName": "epfid2d1_188",
        "SequenceVariant": [
          "SK",
          "SS"
        ],
        "SeriesDescription": "cmrr_mbep2d_bold_AP_run4",
        "SeriesNumber": 13,
        "SeriesTime": "174856.031000",
        "SliceLocation": -45.149179515982,
        "SliceThickness": 1.1000000238419,
        "SmallestImagePixelValue": 0,
        "SoftwareVersions": "syngo MR B17",
        "SpacingBetweenSlices": 1.1000000764209,
        "SpecificCharacterSet": "ISO_IR 100",
        "StudyID": "1",
        "StudyTime": "164208.062000",
        "TransmitCoilName": "32Ch_Head_7T",
        "VariableFlipAngleFlag": "N",
        "WindowCenterWidthExplanation": "Algo1",
        "dBdt": 0.0
      },
      "slices": {}
    },
    "modality": "bold",
    "run_id": 4,
    "session_id": "SES05",
    "subject_id": "S10",
    "task_id": "auditory",
    "time": {
      "samples": {
        "AcquisitionNumber": [
          1,
          2,
          3,
          4,
          5,
          6,
          7,
          8,
          9,
          10,
          11,
          12,
          13,
          14,
          15,
          16,
          17,
          18,
          19,
          20,
          21,
          22,
          23,
          24,
          25,
          26,
          27,
          28,
          29,
          30,
          31,
          32,
          33,
          34,
          35,
          36,
          37,
          38,
          39,
          40,
          41,
          42,
          43,
          44,
          45,
          46,
          47,
          48,
          49,
          50,
          51,
          52,
          53,
          54,
          55,
          56,
          57,
          58,
          59,
          60,
          61,
          62,
          63,
          64,
          65,
          66,
          67,
          68,
          69,
          70,
          71,
          72,
          73,
          74,
          75,
          76,
          77,
          78,
          79,
          80,
          81,
          82,
          83,
          84,
          85,
          86,
          87,
          88,
          89,
          90,
          91,
          92,
          93,
          94,
          95,
          96,
          97,
          98,
          99,
          100,
          101,
          102,
          103,
          104,
          105,
          106,
          107,
          108,
          109,
          110,
          111,
          112,
          113,
          114,
          115,
          116,
          117,
          118,
          119,
          120,
          121,
          122,
          123,
          124,
          125,
          126,
          127,
          128,
          129,
          130,
          131,
          132,
          133,
          134,
          135,
          136,
          137,
          138,
          139,
          140,
          141,
          142,
          143,
          144,
          145,
          146,
          147,
          148,
          149,
          150,
          151,
          152,
          153,
          154,
          155,
          156,
          157,
          158,
          159,
          160,
          161,
          162,
          163,
          164,
          165,
          166,
          167,
          168,
          169,
          170,
          171,
          172,
          173,
          174,
          175,
          176,
          177,
          178,
          179,
          180,
          181,
          182,
          183,
          184,
          185,
          186,
          187,
          188,
          189,
          190,
          191,
          192,
          193,
          194,
          195,
          196,
          197,
          198,
          199,
          200,
          201,
          202,
          203,
          204,
          205,
          206,
          207,
          208,
          209,
          210,
          211,
          212,
          213,
          214,
          215,
          216
        ],
        "AcquisitionTime": [
          "174758.032500",
          "174800.642500",
          "174803.252500",
          "174805.862500",
          "174808.472500",
          "174811.082500",
          "174813.695000",
          "174816.305000",
          "174818.915000",
          "174821.525000",
          "174824.135000",
          "174826.747500",
          "174829.357500",
          "174831.967500",
          "174834.577500",
          "174837.187500",
          "174839.797500",
          "174842.410000",
          "174845.020000",
          "174847.630000",
          "174850.240000",
          "174852.850000",
          "174855.460000",
          "174858.072500",
          "174900.682500",
          "174903.292500",
          "174905.902500",
          "174908.512500",
          "174911.125000",
          "174913.735000",
          "174916.345000",
          "174918.955000",
          "174921.565000",
          "174924.175000",
          "174926.787500",
          "174929.397500",
          "174932.007500",
          "174934.617500",
          "174937.227500",
          "174939.837500",
          "174942.450000",
          "174945.060000",
          "174947.670000",
          "174950.280000",
          "174952.890000",
          "174955.502500",
          "174958.112500",
          "175000.722500",
          "175003.332500",
          "175005.942500",
          "175008.552500",
          "175011.165000",
          "175013.775000",
          "175016.385000",
          "175018.995000",
          "175021.605000",
          "175024.215000",
          "175026.827500",
          "175029.437500",
          "175032.047500",
          "175034.657500",
          "175037.267500",
          "175039.880000",
          "175042.490000",
          "175045.100000",
          "175047.710000",
          "175050.320000",
          "175052.930000",
          "175055.542500",
          "175058.152500",
          "175100.762500",
          "175103.372500",
          "175105.982500",
          "175108.592500",
          "175111.205000",
          "175113.815000",
          "175116.425000",
          "175119.035000",
          "175121.645000",
          "175124.257500",
          "175126.867500",
          "175129.477500",
          "175132.087500",
          "175134.697500",
          "175137.307500",
          "175139.920000",
          "175142.530000",
          "175145.140000",
          "175147.750000",
          "175150.360000",
          "175152.970000",
          "175155.582500",
          "175158.192500",
          "175200.802500",
          "175203.412500",
          "175206.022500",
          "175208.635000",
          "175211.245000",
          "175213.855000",
          "175216.465000",
          "175219.075000",
          "175221.685000",
          "175224.297500",
          "175226.907500",
          "175229.517500",
          "175232.127500",
          "175234.737500",
          "175237.347500",
          "175239.960000",
          "175242.570000",
          "175245.180000",
          "175247.790000",
          "175250.400000",
          "175253.012500",
          "175255.622500",
          "175258.232500",
          "175300.842500",
          "175303.452500",
          "175306.062500",
          "175308.675000",
          "175311.285000",
          "175313.895000",
          "175316.505000",
          "175319.115000",
          "175321.725000",
          "175324.337500",
          "175326.947500",
          "175329.557500",
          "175332.167500",
          "175334.777500",
          "175337.390000",
          "175340.000000",
          "175342.610000",
          "175345.220000",
          "175347.830000",
          "175350.440000",
          "175353.052500",
          "175355.662500",
          "175358.272500",
          "175400.882500",
          "175403.492500",
          "175406.102500",
          "175408.715000",
          "175411.325000",
          "175413.935000",
          "175416.545000",
          "175419.155000",
          "175421.767500",
          "175424.377500",
          "175426.987500",
          "175429.597500",
          "175432.207500",
          "175434.817500",
          "175437.430000",
          "175440.040000",
          "175442.650000",
          "175445.260000",
          "175447.870000",
          "175450.480000",
          "175453.092500",
          "175455.702500",
          "175458.312500",
          "175500.922500",
          "175503.532500",
          "175506.145000",
          "175508.755000",
          "175511.365000",
          "175513.975000",
          "175516.585000",
          "175519.195000",
          "175521.807500",
          "175524.417500",
          "175527.027500",
          "175529.637500",
          "175532.247500",
          "175534.857500",
          "175537.470000",
          "175540.080000",
          "175542.690000",
          "175545.300000",
          "175547.910000",
          "175550.522500",
          "175553.132500",
          "175555.742500",
          "175558.352500",
          "175600.962500",
          "175603.572500",
          "175606.185000",
          "175608.795000",
          "175611.405000",
          "175614.015000",
          "175616.625000",
          "175619.235000",
          "175621.847500",
          "175624.457500",
          "175627.067500",
          "175629.677500",
          "175632.287500",
          "175634.900000",
          "175637.510000",
          "175640.120000",
          "175642.730000",
          "175645.340000",
          "175647.950000",
          "175650.562500",
          "175653.172500",
          "175655.782500",
          "175658.392500",
          "175701.002500",
          "175703.615000",
          "175706.225000",
          "175708.835000",
          "175711.445000",
          "175714.055000",
          "175716.665000",
          "175719.277500"
        ],
        "ContentTime": [
          "174856.031000",
          "174856.046000",
          "174856.046000",
          "174856.046000",
          "174856.046000",
          "174856.046000",
          "174856.062000",
          "174856.062000",
          "174856.062000",
          "174856.062000",
          "174856.062000",
          "174856.062000",
          "174856.062000",
          "174856.062000",
          "174856.078000",
          "174856.078000",
          "174856.078000",
          "174856.078000",
          "174856.078000",
          "174856.078000",
          "174856.078000",
          "174956.031000",
          "174956.031000",
          "174956.046000",
          "174956.046000",
          "174956.062000",
          "174956.062000",
          "174956.062000",
          "174956.062000",
          "174956.062000",
          "174956.078000",
          "174956.078000",
          "174956.078000",
          "174956.078000",
          "174956.078000",
          "174956.078000",
          "174956.093000",
          "174956.093000",
          "174956.093000",
          "174956.093000",
          "174956.093000",
          "174956.093000",
          "174956.109000",
          "174956.109000",
          "175056.031000",
          "175056.031000",
          "175056.031000",
          "175056.031000",
          "175056.046000",
          "175056.046000",
          "175056.046000",
          "175056.046000",
          "175056.062000",
          "175056.062000",
          "175056.062000",
          "175056.062000",
          "175056.062000",
          "175056.062000",
          "175056.062000",
          "175056.078000",
          "175056.078000",
          "175056.078000",
          "175056.078000",
          "175056.078000",
          "175056.078000",
          "175056.078000",
          "175056.093000",
          "175056.093000",
          "175156.031000",
          "175156.031000",
          "175156.031000",
          "175156.046000",
          "175156.046000",
          "175156.046000",
          "175156.046000",
          "175156.046000",
          "175156.046000",
          "175156.062000",
          "175156.062000",
          "175156.062000",
          "175156.062000",
          "175156.062000",
          "175156.062000",
          "175156.078000",
          "175156.078000",
          "175156.078000",
          "175156.078000",
          "175156.093000",
          "175156.093000",
          "175156.093000",
          "175156.093000",
          "175256.031000",
          "175256.031000",
          "175256.031000",
          "175256.046000",
          "175256.046000",
          "175256.046000",
          "175256.046000",
          "175256.046000",
          "175256.046000",
          "175256.062000",
          "175256.062000",
          "175256.062000",
          "175256.062000",
          "175256.062000",
          "175256.062000",
          "175256.062000",
          "175256.062000",
          "175256.078000",
          "175256.078000",
          "175256.078000",
          "175256.078000",
          "175256.078000",
          "175256.093000",
          "175356.031000",
          "175356.031000",
          "175356.031000",
          "175356.046000",
          "175356.046000",
          "175356.046000",
          "175356.046000",
          "175356.046000",
          "175356.046000",
          "175356.046000",
          "175356.046000",
          "175356.062000",
          "175356.062000",
          "175356.062000",
          "175356.062000",
          "175356.062000",
          "175356.062000",
          "175356.062000",
          "175356.078000",
          "175356.078000",
          "175356.078000",
          "175356.078000",
          "175356.078000",
          "175436.031000",
          "175436.031000",
          "175436.031000",
          "175436.031000",
          "175436.046000",
          "175436.046000",
          "175436.046000",
          "175436.046000",
          "175436.062000",
          "175436.062000",
          "175436.062000",
          "175436.062000",
          "175436.062000",
          "175436.062000",
          "175436.062000",
          "175536.031000",
          "175536.031000",
          "175536.031000",
          "175536.031000",
          "175536.046000",
          "175536.046000",
          "175536.046000",
          "175536.046000",
          "175536.046000",
          "175536.046000",
          "175536.046000",
          "175536.062000",
          "175536.062000",
          "175536.062000",
          "175536.062000",
          "175536.062000",
          "175536.062000",
          "175536.078000",
          "175536.078000",
          "175536.078000",
          "175536.078000",
          "175536.078000",
          "175536.078000",
          "175636.031000",
          "175636.031000",
          "175636.031000",
          "175636.031000",
          "175636.046000",
          "175636.046000",
          "175636.046000",
          "175636.046000",
          "175636.046000",
          "175636.046000",
          "175636.046000",
          "175636.062000",
          "175636.062000",
          "175636.062000",
          "175636.062000",
          "175636.062000",
          "175636.078000",
          "175636.078000",
          "175636.078000",
          "175636.078000",
          "175636.078000",
          "175636.078000",
          "175636.078000",
          "175725.671000",
          "175725.671000",
          "175725.687000",
          "175725.687000",
          "175725.687000",
          "175725.687000",
          "175725.687000",
          "175725.687000",
          "175725.687000",
          "175725.703000",
          "175725.703000",
          "175725.703000",
          "175725.703000",
          "175725.703000",
          "175725.703000",
          "175725.703000",
          "175725.718000",
          "175725.718000"
        ],
        "InstanceCreationTime": [
          "174856.031000",
          "174856.046000",
          "174856.046000",
          "174856.046000",
          "174856.046000",
          "174856.046000",
          "174856.062000",
          "174856.062000",
          "174856.062000",
          "174856.062000",
          "174856.062000",
          "174856.062000",
          "174856.062000",
          "174856.062000",
          "174856.078000",
          "174856.078000",
          "174856.078000",
          "174856.078000",
          "174856.078000",
          "174856.078000",
          "174856.078000",
          "174956.031000",
          "174956.031000",
          "174956.046000",
          "174956.046000",
          "174956.062000",
          "174956.062000",
          "174956.062000",
          "174956.062000",
          "174956.062000",
          "174956.078000",
          "174956.078000",
          "174956.078000",
          "174956.078000",
          "174956.078000",
          "174956.078000",
          "174956.093000",
          "174956.093000",
          "174956.093000",
          "174956.093000",
          "174956.093000",
          "174956.093000",
          "174956.109000",
          "174956.109000",
          "175056.031000",
          "175056.031000",
          "175056.031000",
          "175056.031000",
          "175056.046000",
          "175056.046000",
          "175056.046000",
          "175056.046000",
          "175056.062000",
          "175056.062000",
          "175056.062000",
          "175056.062000",
          "175056.062000",
          "175056.062000",
          "175056.062000",
          "175056.078000",
          "175056.078000",
          "175056.078000",
          "175056.078000",
          "175056.078000",
          "175056.078000",
          "175056.078000",
          "175056.093000",
          "175056.093000",
          "175156.031000",
          "175156.031000",
          "175156.031000",
          "175156.046000",
          "175156.046000",
          "175156.046000",
          "175156.046000",
          "175156.046000",
          "175156.046000",
          "175156.062000",
          "175156.062000",
          "175156.062000",
          "175156.062000",
          "175156.062000",
          "175156.062000",
          "175156.078000",
          "175156.078000",
          "175156.078000",
          "175156.078000",
          "175156.093000",
          "175156.093000",
          "175156.093000",
          "175156.093000",
          "175256.031000",
          "175256.031000",
          "175256.031000",
          "175256.046000",
          "175256.046000",
          "175256.046000",
          "175256.046000",
          "175256.046000",
          "175256.046000",
          "175256.062000",
          "175256.062000",
          "175256.062000",
          "175256.062000",
          "175256.062000",
          "175256.062000",
          "175256.062000",
          "175256.062000",
          "175256.078000",
          "175256.078000",
          "175256.078000",
          "175256.078000",
          "175256.078000",
          "175256.093000",
          "175356.031000",
          "175356.031000",
          "175356.031000",
          "175356.046000",
          "175356.046000",
          "175356.046000",
          "175356.046000",
          "175356.046000",
          "175356.046000",
          "175356.046000",
          "175356.046000",
          "175356.062000",
          "175356.062000",
          "175356.062000",
          "175356.062000",
          "175356.062000",
          "175356.062000",
          "175356.062000",
          "175356.078000",
          "175356.078000",
          "175356.078000",
          "175356.078000",
          "175356.078000",
          "175436.031000",
          "175436.031000",
          "175436.031000",
          "175436.031000",
          "175436.046000",
          "175436.046000",
          "175436.046000",
          "175436.046000",
          "175436.062000",
          "175436.062000",
          "175436.062000",
          "175436.062000",
          "175436.062000",
          "175436.062000",
          "175436.062000",
          "175536.031000",
          "175536.031000",
          "175536.031000",
          "175536.031000",
          "175536.046000",
          "175536.046000",
          "175536.046000",
          "175536.046000",
          "175536.046000",
          "175536.046000",
          "175536.046000",
          "175536.062000",
          "175536.062000",
          "175536.062000",
          "175536.062000",
          "175536.062000",
          "175536.062000",
          "175536.078000",
          "175536.078000",
          "175536.078000",
          "175536.078000",
          "175536.078000",
          "175536.078000",
          "175636.031000",
          "175636.031000",
          "175636.031000",
          "175636.031000",
          "175636.046000",
          "175636.046000",
          "175636.046000",
          "175636.046000",
          "175636.046000",
          "175636.046000",
          "175636.046000",
          "175636.062000",
          "175636.062000",
          "175636.062000",
          "175636.062000",
          "175636.062000",
          "175636.078000",
          "175636.078000",
          "175636.078000",
          "175636.078000",
          "175636.078000",
          "175636.078000",
          "175636.078000",
          "175725.671000",
          "175725.671000",
          "175725.687000",
          "175725.687000",
          "175725.687000",
          "175725.687000",
          "175725.687000",
          "175725.687000",
          "175725.687000",
          "175725.703000",
          "175725.703000",
          "175725.703000",
          "175725.703000",
          "175725.703000",
          "175725.703000",
          "175725.703000",
          "175725.718000",
          "175725.718000"
        ],
        "InstanceNumber": [
          1,
          2,
          3,
          4,
          5,
          6,
          7,
          8,
          9,
          10,
          11,
          12,
          13,
          14,
          15,
          16,
          17,
          18,
          19,
          20,
          21,
          22,
          23,
          24,
          25,
          26,
          27,
          28,
          29,
          30,
          31,
          32,
          33,
          34,
          35,
          36,
          37,
          38,
          39,
          40,
          41,
          42,
          43,
          44,
          45,
          46,
          47,
          48,
          49,
          50,
          51,
          52,
          53,
          54,
          55,
          56,
          57,
          58,
          59,
          60,
          61,
          62,
          63,
          64,
          65,
          66,
          67,
          68,
          69,
          70,
          71,
          72,
          73,
          74,
          75,
          76,
          77,
          78,
          79,
          80,
          81,
          82,
          83,
          84,
          85,
          86,
          87,
          88,
          89,
          90,
          91,
          92,
          93,
          94,
          95,
          96,
          97,
          98,
          99,
          100,
          101,
          102,
          103,
          104,
          105,
          106,
          107,
          108,
          109,
          110,
          111,
          112,
          113,
          114,
          115,
          116,
          117,
          118,
          119,
          120,
          121,
          122,
          123,
          124,
          125,
          126,
          127,
          128,
          129,
          130,
          131,
          132,
          133,
          134,
          135,
          136,
          137,
          138,
          139,
          140,
          141,
          142,
          143,
          144,
          145,
          146,
          147,
          148,
          149,
          150,
          151,
          152,
          153,
          154,
          155,
          156,
          157,
          158,
          159,
          160,
          161,
          162,
          163,
          164,
          165,
          166,
          167,
          168,
          169,
