{
  "aor": 0.0004999537037037037,
  "aqi": 0.013029092129629629,
  "bids_meta": {
    "AcquisitionMatrixPE": 188,
    "AcquisitionNumber": 1,
    "AcquisitionTime": "15:23:15.190000",
    "BandwidthPerPixelPhaseEncode": 19.46,
    "BaseResolution": 188,
    "ConversionSoftware": "dcm2niix",
    "ConversionSoftwareVersion": "v1.0.20180606 GCC4.8.5",
    "DelayTime": 1.2,
    "DerivedVendorReportedEchoSpacing": 0.000820013,
    "DeviceSerialNumber": "18930",
    "DwellTime": 1.9e-06,
    "EchoTime": 0.02,
    "EffectiveEchoSpacing": 0.000273338,
    "FlipAngle": 80,
    "ImageComments": "Unaliased_MB2_PE2",
    "ImageOrientationPatientDICOM": [
      0.997468,
      0.049947,
      -0.0506264,
      -0.0621446,
      0.266011,
      -0.961965
    ],
    "ImageType": [
      "ORIGINAL",
      "PRIMARY",
      "M",
      "MB",
      "ND",
      "MOSAIC"
    ],
    "InPlanePhaseEncodingDirectionDICOM": "COL",
    "InstitutionAddress": "Oxfordlaan_55_Maastricht_Limburg_NL_6229_EV",
    "InstitutionName": "Scannexus",
    "InstitutionalDepartmentName": "MRI_7T",
    "MRAcquisitionType": "2D",
    "MagneticFieldStrength": 6.98,
    "Manufacturer": "Siemens",
    "ManufacturersModelName": "Investigational_Device_7T",
    "Modality": "MR",
    "MultibandAccelerationFactor": 2,
    "ParallelReductionFactorInPlane": 3,
    "PartialFourier": 0.75,
    "PatientPosition": "HFS",
    "PercentPhaseFOV": 100,
    "PhaseEncodingDirection": "j",
    "PhaseEncodingSteps": 141,
    "PhaseResolution": 1,
    "PixelBandwidth": 1400,
    "ProcedureStepDescription": "FeDem_Faruk",
    "ProtocolName": "cmrr_mbep2d_bold_AP_run12",
    "PulseSequenceDetails": "%CustomerSeq%_cmrr_mbep2d_bold",
    "ReceiveCoilName": "32Ch_Head_7T",
    "ReconMatrixPE": 188,
    "RepetitionTime": 2.6,
    "SAR": 0.0935384,
    "ScanOptions": "PFP_FS",
    "ScanningSequence": "EP",
    "SequenceName": "epfid2d1_188",
    "SequenceVariant": "SK_SS",
    "SeriesDescription": "cmrr_mbep2d_bold_AP_run12",
    "SeriesNumber": 13,
    "ShimSetting": [
      94,
      -225,
      493,
      452,
      94,
      -189,
      -57,
      166
    ],
    "SliceThickness": 1.1,
    "SliceTiming": [
      0,
      0.7325,
      0.06,
      0.7925,
      0.1225,
      0.855,
      0.1825,
      0.915,
      0.2425,
      0.9775,
      0.305,
      1.0375,
      0.365,
      1.1,
      0.4275,
      1.16,
      0.4875,
      1.22,
      0.55,
      1.2825,
      0.61,
      1.3425,
      0.6725,
      0,
      0.7325,
      0.06,
      0.7925,
      0.1225,
      0.855,
      0.1825,
      0.915,
      0.2425,
      0.9775,
      0.305,
      1.0375,
      0.365,
      1.1,
      0.4275,
      1.16,
      0.4875,
      1.22,
      0.55,
      1.2825,
      0.61,
      1.3425,
      0.6725
    ],
    "SoftwareVersions": "syngo_MR_B17",
    "SpacingBetweenSlices": 1.1,
    "StationName": "MRC18930",
    "TaskName": "auditory",
    "TotalReadoutTime": 0.0511141,
    "TxRefAmp": 245,
    "dataset": "ds001942",
    "dcmmeta_affine": [
      [
        -1.0929702520370483,
        -0.0680946335196495,
        0.03803808614611626,
        108.62665557861328
      ],
      [
        -0.05472918599843979,
        0.29148048162460327,
        -1.058942437171936,
        18.910226821899414
      ],
      [
        -0.05547358840703964,
        1.0540677309036255,
        0.29528582096099854,
        -109.4985122680664
      ],
      [
        0.0,
        0.0,
        0.0,
        1.0
      ]
    ],
    "dcmmeta_reorient_transform": [
      [
        0.0,
        -1.0,
        0.0,
        187.0
      ],
      [
        1.0,
        0.0,
        0.0,
        0.0
      ],
      [
        0.0,
        0.0,
        1.0,
        0.0
      ],
      [
        0.0,
        0.0,
        0.0,
        1.0
      ]
    ],
    "dcmmeta_shape": [
      188,
      188,
      46,
      216
    ],
    "dcmmeta_slice_dim": 2,
    "dcmmeta_version": 0.6,
    "global": {
      "const": {
        "AcquisitionMatrix": [
          188,
          0,
          0,
          188
        ],
        "AngioFlag": "N",
        "BitsAllocated": 16,
        "BitsStored": 12,
        "Columns": 1316,
        "EchoNumbers": 1,
        "EchoTime": 20.0,
        "EchoTrainLength": 1,
        "FlipAngle": 80.0,
        "HighBit": 11,
        "ImageOrientationPatient": [
          0.99746792660154,
          0.04994702250317,
          -0.0506263799248,
          -0.0621446160462,
          0.26601129568337,
          -0.9619646756848
        ],
        "ImagePositionPatient": [
          -673.92279089922,
          -268.679324741,
          713.39344885895
        ],
        "ImageType": [
          "ORIGINAL",
          "PRIMARY",
          "M",
          "MB",
          "ND",
          "MOSAIC"
        ],
        "ImagedNucleus": "1H",
        "ImagingFrequency": 297.205443,
        "InPlanePhaseEncodingDirection": "COL",
        "LargestImagePixelValue": 4095,
        "MRAcquisitionType": "2D",
        "MagneticFieldStrength": 6.98,
        "Manufacturer": "SIEMENS",
        "ManufacturerModelName": "Investigational_Device_7T",
        "Modality": "MR",
        "NumberOfAverages": 1.0,
        "NumberOfPhaseEncodingSteps": 141,
        "PercentPhaseFieldOfView": 100.0,
        "PercentSampling": 100.0,
        "PerformedProcedureStepStartTime": "141952.000000",
        "PhotometricInterpretation": "MONOCHROME2",
        "PixelBandwidth": 1400.0,
        "PixelRepresentation": 0,
        "PixelSpacing": [
          1.0957447290421,
          1.0957447290421
        ],
        "ProtocolName": "cmrr_mbep2d_bold_AP_run12",
        "RepetitionTime": 2600.0,
        "Rows": 1316,
        "SAR": 0.09353838648825,
        "SamplesPerPixel": 1,
        "ScanOptions": [
          "PFP",
          "FS"
        ],
        "ScanningSequence": "EP",
        "SequenceName": "epfid2d1_188",
        "SequenceVariant": [
          "SK",
          "SS"
        ],
        "SeriesDescription": "cmrr_mbep2d_bold_AP_run12",
        "SeriesNumber": 13,
        "SeriesTime": "152424.765000",
        "SliceLocation": -43.842049741321,
        "SliceThickness": 1.1000000238419,
        "SmallestImagePixelValue": 0,
        "SoftwareVersions": "syngo MR B17",
        "SpacingBetweenSlices": 1.0999998699709,
        "SpecificCharacterSet": "ISO_IR 100",
        "StudyID": "1",
        "StudyTime": "141951.937000",
        "TransmitCoilName": "32Ch_Head_7T",
        "VariableFlipAngleFlag": "N",
        "WindowCenterWidthExplanation": "Algo1",
        "dBdt": 0.0
      },
      "slices": {}
    },
    "modality": "bold",
    "run_id": 4,
    "session_id": "SES05",
    "subject_id": "S11",
    "task_id": "auditory",
    "time": {
      "samples": {
        "AcquisitionNumber": [
          1,
          2,
          3,
          4,
          5,
          6,
          7,
          8,
          9,
          10,
          11,
          12,
          13,
          14,
          15,
          16,
          17,
          18,
          19,
          20,
          21,
          22,
          23,
          24,
          25,
          26,
          27,
          28,
          29,
          30,
          31,
          32,
          33,
          34,
          35,
          36,
          37,
          38,
          39,
          40,
          41,
          42,
          43,
          44,
          45,
          46,
          47,
          48,
          49,
          50,
          51,
          52,
          53,
          54,
          55,
          56,
          57,
          58,
          59,
          60,
          61,
          62,
          63,
          64,
          65,
          66,
          67,
          68,
          69,
          70,
          71,
          72,
          73,
          74,
          75,
          76,
          77,
          78,
          79,
          80,
          81,
          82,
          83,
          84,
          85,
          86,
          87,
          88,
          89,
          90,
          91,
          92,
          93,
          94,
          95,
          96,
          97,
          98,
          99,
          100,
          101,
          102,
          103,
          104,
          105,
          106,
          107,
          108,
          109,
          110,
          111,
          112,
          113,
          114,
          115,
          116,
          117,
          118,
          119,
          120,
          121,
          122,
          123,
          124,
          125,
          126,
          127,
          128,
          129,
          130,
          131,
          132,
          133,
          134,
          135,
          136,
          137,
          138,
          139,
          140,
          141,
          142,
          143,
          144,
          145,
          146,
          147,
          148,
          149,
          150,
          151,
          152,
          153,
          154,
          155,
          156,
          157,
          158,
          159,
          160,
          161,
          162,
          163,
          164,
          165,
          166,
          167,
          168,
          169,
          170,
          171,
          172,
          173,
          174,
          175,
          176,
          177,
          178,
          179,
          180,
          181,
          182,
          183,
          184,
          185,
          186,
          187,
          188,
          189,
          190,
          191,
          192,
          193,
          194,
          195,
          196,
          197,
          198,
          199,
          200,
          201,
          202,
          203,
          204,
          205,
          206,
          207,
          208,
          209,
          210,
          211,
          212,
          213,
          214,
          215,
          216
        ],
        "AcquisitionTime": [
          "152315.190000",
          "152317.800000",
          "152320.410000",
          "152323.020000",
          "152325.630000",
          "152328.242500",
          "152330.852500",
          "152333.462500",
          "152336.072500",
          "152338.682500",
          "152341.292500",
          "152343.905000",
          "152346.515000",
          "152349.125000",
          "152351.735000",
          "152354.345000",
          "152356.955000",
          "152359.567500",
          "152402.177500",
          "152404.787500",
          "152407.397500",
          "152410.007500",
          "152412.620000",
          "152415.230000",
          "152417.840000",
          "152420.450000",
          "152423.060000",
          "152425.670000",
          "152428.282500",
          "152430.892500",
          "152433.502500",
          "152436.112500",
          "152438.722500",
          "152441.332500",
          "152443.945000",
          "152446.555000",
          "152449.165000",
          "152451.775000",
          "152454.385000",
          "152456.997500",
          "152459.607500",
          "152502.217500",
          "152504.827500",
          "152507.437500",
          "152510.047500",
          "152512.660000",
          "152515.270000",
          "152517.880000",
          "152520.490000",
          "152523.100000",
          "152525.710000",
          "152528.322500",
          "152530.932500",
          "152533.542500",
          "152536.152500",
          "152538.762500",
          "152541.375000",
          "152543.985000",
          "152546.595000",
          "152549.205000",
          "152551.815000",
          "152554.425000",
          "152557.037500",
          "152559.647500",
          "152602.257500",
          "152604.867500",
          "152607.477500",
          "152610.087500",
          "152612.700000",
          "152615.310000",
          "152617.920000",
          "152620.530000",
          "152623.140000",
          "152625.752500",
          "152628.362500",
          "152630.972500",
          "152633.582500",
          "152636.192500",
          "152638.802500",
          "152641.415000",
          "152644.025000",
          "152646.635000",
          "152649.245000",
          "152651.855000",
          "152654.465000",
          "152657.077500",
          "152659.687500",
          "152702.297500",
          "152704.907500",
          "152707.517500",
          "152710.130000",
          "152712.740000",
          "152715.350000",
          "152717.960000",
          "152720.570000",
          "152723.180000",
          "152725.792500",
          "152728.402500",
          "152731.012500",
          "152733.622500",
          "152736.232500",
          "152738.842500",
          "152741.455000",
          "152744.065000",
          "152746.675000",
          "152749.285000",
          "152751.895000",
          "152754.507500",
          "152757.117500",
          "152759.727500",
          "152802.337500",
          "152804.947500",
          "152807.557500",
          "152810.170000",
          "152812.780000",
          "152815.390000",
          "152818.000000",
          "152820.610000",
          "152823.222500",
          "152825.832500",
          "152828.442500",
          "152831.052500",
          "152833.662500",
          "152836.272500",
          "152838.885000",
          "152841.495000",
          "152844.105000",
          "152846.715000",
          "152849.325000",
          "152851.935000",
          "152854.547500",
          "152857.157500",
          "152859.767500",
          "152902.377500",
          "152904.987500",
          "152907.600000",
          "152910.210000",
          "152912.820000",
          "152915.430000",
          "152918.040000",
          "152920.650000",
          "152923.262500",
          "152925.872500",
          "152928.482500",
          "152931.092500",
          "152933.702500",
          "152936.312500",
          "152938.925000",
          "152941.535000",
          "152944.145000",
          "152946.755000",
          "152949.365000",
          "152951.977500",
          "152954.587500",
          "152957.197500",
          "152959.807500",
          "153002.417500",
          "153005.027500",
          "153007.640000",
          "153010.250000",
          "153012.860000",
          "153015.470000",
          "153018.080000",
          "153020.690000",
          "153023.302500",
          "153025.912500",
          "153028.522500",
          "153031.132500",
          "153033.742500",
          "153036.355000",
          "153038.965000",
          "153041.575000",
          "153044.185000",
          "153046.795000",
          "153049.405000",
          "153052.017500",
          "153054.627500",
          "153057.237500",
          "153059.847500",
          "153102.457500",
          "153105.067500",
          "153107.680000",
          "153110.290000",
          "153112.900000",
          "153115.510000",
          "153118.120000",
          "153120.732500",
          "153123.342500",
          "153125.952500",
          "153128.562500",
          "153131.172500",
          "153133.782500",
          "153136.395000",
          "153139.005000",
          "153141.615000",
          "153144.225000",
          "153146.835000",
          "153149.445000",
          "153152.057500",
          "153154.667500",
          "153157.277500",
          "153159.887500",
          "153202.497500",
          "153205.110000",
          "153207.720000",
          "153210.330000",
          "153212.940000",
          "153215.550000",
          "153218.160000",
          "153220.772500",
          "153223.382500",
          "153225.992500",
          "153228.602500",
          "153231.212500",
          "153233.822500",
          "153236.435000"
        ],
        "ContentTime": [
          "152424.765000",
          "152424.765000",
          "152424.765000",
          "152424.781000",
          "152424.781000",
          "152424.781000",
          "152424.781000",
          "152424.781000",
          "152424.781000",
          "152424.781000",
          "152424.781000",
          "152424.796000",
          "152424.796000",
          "152424.796000",
          "152424.796000",
          "152424.796000",
          "152424.796000",
          "152424.796000",
          "152424.812000",
          "152424.812000",
          "152424.812000",
          "152424.812000",
          "152424.812000",
          "152424.828000",
          "152424.828000",
          "152424.828000",
          "152524.765000",
          "152524.765000",
          "152524.765000",
          "152524.765000",
          "152524.765000",
          "152524.765000",
          "152524.781000",
          "152524.781000",
          "152524.781000",
          "152524.781000",
          "152524.781000",
          "152524.781000",
          "152524.781000",
          "152524.781000",
          "152524.796000",
          "152524.796000",
          "152524.796000",
          "152524.796000",
          "152524.796000",
          "152524.796000",
          "152524.796000",
          "152524.796000",
          "152524.812000",
          "152624.765000",
          "152624.765000",
          "152624.765000",
          "152624.765000",
          "152624.765000",
          "152624.765000",
          "152624.781000",
          "152624.781000",
          "152624.781000",
          "152624.796000",
          "152624.796000",
          "152624.796000",
          "152624.796000",
          "152624.796000",
          "152624.812000",
          "152624.812000",
          "152624.812000",
          "152624.812000",
          "152624.812000",
          "152624.812000",
          "152624.812000",
          "152624.812000",
          "152624.828000",
          "152644.765000",
          "152644.765000",
          "152644.765000",
          "152644.781000",
          "152644.781000",
          "152644.781000",
          "152644.781000",
          "152744.765000",
          "152744.765000",
          "152744.765000",
          "152744.765000",
          "152744.765000",
          "152744.765000",
          "152744.781000",
          "152744.781000",
          "152744.781000",
          "152744.781000",
          "152744.781000",
          "152744.781000",
          "152744.781000",
          "152744.781000",
          "152744.796000",
          "152744.796000",
          "152744.796000",
          "152744.796000",
          "152744.796000",
          "152744.796000",
          "152744.796000",
          "152744.812000",
          "152744.812000",
          "152744.812000",
          "152844.765000",
          "152844.765000",
          "152844.765000",
          "152844.765000",
          "152844.765000",
          "152844.781000",
          "152844.781000",
          "152844.781000",
          "152844.781000",
          "152844.796000",
          "152844.796000",
          "152844.796000",
          "152844.796000",
          "152844.796000",
          "152844.796000",
          "152844.796000",
          "152844.812000",
          "152844.812000",
          "152844.812000",
          "152844.812000",
          "152844.812000",
          "152844.812000",
          "152844.828000",
          "152944.765000",
          "152944.765000",
          "152944.765000",
          "152944.765000",
          "152944.765000",
          "152944.765000",
          "152944.781000",
          "152944.781000",
          "152944.781000",
          "152944.781000",
          "152944.781000",
          "152944.781000",
          "152944.781000",
          "152944.781000",
          "152944.796000",
          "152944.796000",
          "152944.796000",
          "152944.796000",
          "152944.796000",
          "152944.796000",
          "152944.796000",
          "152944.796000",
          "152944.812000",
          "153044.765000",
          "153044.765000",
          "153044.765000",
          "153044.765000",
          "153044.765000",
          "153044.765000",
          "153044.781000",
          "153044.781000",
          "153044.781000",
          "153044.781000",
          "153044.796000",
          "153044.796000",
          "153044.796000",
          "153044.796000",
          "153044.796000",
          "153044.796000",
          "153044.796000",
          "153044.796000",
          "153044.812000",
          "153044.812000",
          "153044.812000",
          "153044.812000",
          "153044.812000",
          "153144.765000",
          "153144.765000",
          "153144.765000",
          "153144.765000",
          "153144.765000",
          "153144.781000",
          "153144.781000",
          "153144.781000",
          "153144.781000",
          "153144.781000",
          "153144.781000",
          "153144.781000",
          "153144.796000",
          "153144.796000",
          "153144.796000",
          "153144.796000",
          "153144.796000",
          "153144.796000",
          "153144.796000",
          "153144.796000",
          "153144.812000",
          "153144.812000",
          "153144.812000",
          "153243.515000",
          "153243.515000",
          "153243.531000",
          "153243.531000",
          "153243.531000",
          "153243.531000",
          "153243.531000",
          "153243.531000",
          "153243.531000",
          "153243.546000",
          "153243.546000",
          "153243.546000",
          "153243.546000",
          "153243.546000",
          "153243.546000",
          "153243.562000",
          "153243.562000",
          "153243.562000",
          "153243.562000",
          "153243.562000",
          "153243.562000"
        ],
        "InstanceCreationTime": [
          "152424.765000",
          "152424.765000",
          "152424.765000",
          "152424.781000",
          "152424.781000",
          "152424.781000",
          "152424.781000",
          "152424.781000",
          "152424.781000",
          "152424.781000",
          "152424.781000",
          "152424.796000",
          "152424.796000",
          "152424.796000",
          "152424.796000",
          "152424.796000",
          "152424.796000",
          "152424.796000",
          "152424.812000",
          "152424.812000",
          "152424.812000",
          "152424.812000",
          "152424.812000",
          "152424.828000",
          "152424.828000",
          "152424.828000",
          "152524.765000",
          "152524.765000",
          "152524.765000",
          "152524.765000",
          "152524.765000",
          "152524.765000",
          "152524.781000",
          "152524.781000",
          "152524.781000",
          "152524.781000",
          "152524.781000",
          "152524.781000",
          "152524.781000",
          "152524.781000",
          "152524.796000",
          "152524.796000",
          "152524.796000",
          "152524.796000",
          "152524.796000",
          "152524.796000",
          "152524.796000",
          "152524.796000",
          "152524.812000",
          "152624.765000",
          "152624.765000",
          "152624.765000",
          "152624.765000",
          "152624.765000",
          "152624.765000",
          "152624.781000",
          "152624.781000",
          "152624.781000",
          "152624.796000",
          "152624.796000",
          "152624.796000",
          "152624.796000",
          "152624.796000",
          "152624.812000",
          "152624.812000",
          "152624.812000",
          "152624.812000",
          "152624.812000",
          "152624.812000",
          "152624.812000",
          "152624.812000",
          "152624.828000",
          "152644.765000",
          "152644.765000",
          "152644.765000",
          "152644.781000",
          "152644.781000",
          "152644.781000",
          "152644.781000",
          "152744.765000",
          "152744.765000",
          "152744.765000",
          "152744.765000",
          "152744.765000",
          "152744.765000",
          "152744.781000",
          "152744.781000",
          "152744.781000",
          "152744.781000",
          "152744.781000",
          "152744.781000",
          "152744.781000",
          "152744.781000",
          "152744.796000",
          "152744.796000",
          "152744.796000",
          "152744.796000",
          "152744.796000",
          "152744.796000",
          "152744.796000",
          "152744.812000",
          "152744.812000",
          "152744.812000",
          "152844.765000",
          "152844.765000",
          "152844.765000",
          "152844.765000",
          "152844.765000",
          "152844.781000",
          "152844.781000",
          "152844.781000",
          "152844.781000",
          "152844.796000",
          "152844.796000",
          "152844.796000",
          "152844.796000",
          "152844.796000",
          "152844.796000",
          "152844.796000",
          "152844.812000",
          "152844.812000",
          "152844.812000",
          "152844.812000",
          "152844.812000",
          "152844.812000",
          "152844.828000",
          "152944.765000",
          "152944.765000",
          "152944.765000",
          "152944.765000",
          "152944.765000",
          "152944.765000",
          "152944.781000",
          "152944.781000",
          "152944.781000",
          "152944.781000",
          "152944.781000",
          "152944.781000",
          "152944.781000",
          "152944.781000",
          "152944.796000",
          "152944.796000",
          "152944.796000",
          "152944.796000",
          "152944.796000",
          "152944.796000",
          "152944.796000",
          "152944.796000",
          "152944.812000",
          "153044.765000",
          "153044.765000",
          "153044.765000",
          "153044.765000",
          "153044.765000",
          "153044.765000",
          "153044.781000",
          "153044.781000",
          "153044.781000",
          "153044.781000",
          "153044.796000",
          "153044.796000",
          "153044.796000",
          "153044.796000",
          "153044.796000",
          "153044.796000",
          "153044.796000",
          "153044.796000",
          "153044.812000",
          "153044.812000",
          "153044.812000",
          "153044.812000",
          "153044.812000",
          "153144.765000",
          "153144.765000",
          "153144.765000",
          "153144.765000",
          "153144.765000",
          "153144.781000",
          "153144.781000",
          "153144.781000",
          "153144.781000",
          "153144.781000",
          "153144.781000",
          "153144.781000",
          "153144.796000",
          "153144.796000",
          "153144.796000",
          "153144.796000",
          "153144.796000",
          "153144.796000",
          "153144.796000",
          "153144.796000",
          "153144.812000",
          "153144.812000",
          "153144.812000",
          "153243.515000",
          "153243.515000",
          "153243.531000",
          "153243.531000",
          "153243.531000",
          "153243.531000",
          "153243.531000",
          "153243.531000",
          "153243.531000",
          "153243.546000",
          "153243.546000",
          "153243.546000",
          "153243.546000",
          "153243.546000",
          "153243.546000",
          "153243.562000",
          "153243.562000",
          "153243.562000",
          "153243.562000",
          "153243.562000",
          "153243.562000"
        ],
        "InstanceNumber": [
          1,
          2,
          3,
          4,
          5,
          6,
          7,
          8,
          9,
          10,
          11,
          12,
          13,
          14,
          15,
          16,
          17,
          18,
          19,
          20,
          21,
          22,
          23,
          24,
          25,
          26,
          27,
          28,
          29,
          30,
          31,
          32,
          33,
          34,
          35,
          36,
          37,
          38,
          39,
          40,
          41,
          42,
          43,
          44,
          45,
          46,
          47,
          48,
          49,
          50,
          51,
          52,
          53,
          54,
          55,
          56,
          57,
          58,
          59,
          60,
          61,
          62,
          63,
          64,
          65,
          66,
          67,
          68,
          69,
          70,
          71,
          72,
          73,
          74,
          75,
          76,
          77,
          78,
          79,
          80,
          81,
          82,
          83,
          84,
          85,
          86,
          87,
          88,
          89,
          90,
          91,
          92,
          93,
          94,
          95,
          96,
          97,
          98,
          99,
          100,
          101,
          102,
          103,
          104,
          105,
          106,
          107,
          108,
          109,
          110,
          111,
          112,
          113,
          114,
          115,
          116,
          117,
          118,
          119,
          120,
          121,
          122,
          123,
          124,
          125,
          126,
          127,
          128,
          129,
          130,
          131,
          132,
          133,
          134,
          135,
          136,
          137,
          138,
          139,
          140,
          141,
          142,
          143,
          144,
          145,
          146,
          147,
          148,
          149,
          150,
          151,
          152,
          153,
          154,
          155,
          156,
          157,
          158,
          159,
          160,
          161,
          162,
          163,
          164,
          165,
          166,
          167,
          168,
          169,
          170,
