{
  "aor": 0.0009378666666666666,
  "aqi": 0.019308871333333335,
  "bids_meta": {
    "AcquisitionMatrixPE": 188,
    "AcquisitionNumber": 1,
    "AcquisitionTime": "12:19:4.210000",
    "BandwidthPerPixelPhaseEncode": 19.46,
    "BaseResolution": 188,
    "ConversionSoftware": "dcm2niix",
    "ConversionSoftwareVersion": "v1.0.20180606 GCC4.8.5",
    "DelayTime": 1.2,
    "DerivedVendorReportedEchoSpacing": 0.000820013,
    "DeviceSerialNumber": "18930",
    "DwellTime": 1.9e-06,
    "EchoTime": 0.02,
    "EffectiveEchoSpacing": 0.000273338,
    "FlipAngle": 80,
    "ImageComments": "Unaliased_MB2_PE2",
    "ImageOrientationPatientDICOM": [
      0.999256,
      0.0139139,
      -0.0359721,
      -0.0378856,
      0.179273,
      -0.98307
    ],
    "ImageType": [
      "ORIGINAL",
      "PRIMARY",
      "M",
      "MB",
      "ND",
      "MOSAIC"
    ],
    "InPlanePhaseEncodingDirectionDICOM": "COL",
    "InstitutionAddress": "Oxfordlaan_55_Maastricht_22AAA2_Limburg_NL_6229_EV",
    "InstitutionName": "Scannexus",
    "InstitutionalDepartmentName": "MRI_7T",
    "MRAcquisitionType": "2D",
    "MagneticFieldStrength": 6.98,
    "Manufacturer": "Siemens",
    "ManufacturersModelName": "Investigational_Device_7T",
    "Modality": "MR",
    "MultibandAccelerationFactor": 2,
    "ParallelReductionFactorInPlane": 3,
    "PartialFourier": 0.75,
    "PatientPosition": "HFS",
    "PercentPhaseFOV": 100,
    "PhaseEncodingDirection": "j",
    "PhaseEncodingSteps": 141,
    "PhaseResolution": 1,
    "PixelBandwidth": 1400,
    "ProcedureStepDescription": "FeDem_Faruk",
    "ProtocolName": "cmrr_mbep2d_bold_AP_run5",
    "PulseSequenceDetails": "%CustomerSeq%_cmrr_mbep2d_bold",
    "ReceiveCoilName": "32Ch_Head_7T",
    "ReconMatrixPE": 188,
    "RepetitionTime": 2.6,
    "SAR": 0.0480849,
    "ScanOptions": "PFP_FS",
    "ScanningSequence": "EP",
    "SequenceName": "epfid2d1_188",
    "SequenceVariant": "SK_SS",
    "SeriesDescription": "cmrr_mbep2d_bold_AP_run5",
    "SeriesNumber": 15,
    "ShimSetting": [
      55,
      -15,
      448,
      370,
      -36,
      30,
      243,
      178
    ],
    "SliceThickness": 1.1,
    "SliceTiming": [
      0,
      0.735,
      0.0625,
      0.795,
      0.1225,
      0.8575,
      0.185,
      0.9175,
      0.245,
      0.98,
      0.3075,
      1.04,
      0.3675,
      1.1,
      0.43,
      1.1625,
      0.49,
      1.2225,
      0.55,
      1.285,
      0.6125,
      1.345,
      0.6725,
      0,
      0.735,
      0.0625,
      0.795,
      0.1225,
      0.8575,
      0.185,
      0.9175,
      0.245,
      0.98,
      0.3075,
      1.04,
      0.3675,
      1.1,
      0.43,
      1.1625,
      0.49,
      1.2225,
      0.55,
      1.285,
      0.6125,
      1.345,
      0.6725
    ],
    "SoftwareVersions": "syngo_MR_B17",
    "SpacingBetweenSlices": 1.1,
    "StationName": "MRC18930",
    "TaskName": "auditory",
    "TotalReadoutTime": 0.0511141,
    "TxRefAmp": 190,
    "dataset": "ds001942",
    "dcmmeta_affine": [
      [
        -1.0949294567108154,
        -0.04151299595832825,
        0.00795249454677105,
        105.62162017822266
      ],
      [
        -0.015246137045323849,
        0.19643795490264893,
        -1.0820709466934204,
        25.347135543823242
      ],
      [
        -0.03941621631383896,
        1.077193260192871,
        0.19763392210006714,
        -120.16474914550781
      ],
      [
        0.0,
        0.0,
        0.0,
        1.0
      ]
    ],
    "dcmmeta_reorient_transform": [
      [
        0.0,
        -1.0,
        0.0,
        187.0
      ],
      [
        1.0,
        0.0,
        0.0,
        0.0
      ],
      [
        0.0,
        0.0,
        1.0,
        0.0
      ],
      [
        0.0,
        0.0,
        0.0,
        1.0
      ]
    ],
    "dcmmeta_shape": [
      188,
      188,
      46,
      150
    ],
    "dcmmeta_slice_dim": 2,
    "dcmmeta_version": 0.6,
    "global": {
      "const": {
        "AcquisitionMatrix": [
          188,
          0,
          0,
          188
        ],
        "AngioFlag": "N",
        "BitsAllocated": 16,
        "BitsStored": 12,
        "Columns": 1316,
        "EchoNumbers": 1,
        "EchoTime": 20.0,
        "EchoTrainLength": 1,
        "FlipAngle": 80.0,
        "HighBit": 11,
        "ImageOrientationPatient": [
          0.99925592893624,
          0.01391394956493,
          -0.0359720793573,
          -0.0378856467098,
          0.17927346063987,
          -0.9830695316627
        ],
        "ImagePositionPatient": [
          -691.98555317959,
          -181.47085669729,
          711.03813114893
        ],
        "ImageType": [
          "ORIGINAL",
          "PRIMARY",
          "M",
          "MB",
          "ND",
          "MOSAIC"
        ],
        "ImagedNucleus": "1H",
        "ImagingFrequency": 297.205657,
        "InPlanePhaseEncodingDirection": "COL",
        "MRAcquisitionType": "2D",
        "MagneticFieldStrength": 6.98,
        "Manufacturer": "SIEMENS",
        "ManufacturerModelName": "Investigational_Device_7T",
        "Modality": "MR",
        "NumberOfAverages": 1.0,
        "NumberOfPhaseEncodingSteps": 141,
        "PercentPhaseFieldOfView": 100.0,
        "PercentSampling": 100.0,
        "PerformedProcedureStepStartTime": "111727.156000",
        "PhotometricInterpretation": "MONOCHROME2",
        "PixelBandwidth": 1400.0,
        "PixelRepresentation": 0,
        "PixelSpacing": [
          1.0957447290421,
          1.0957447290421
        ],
        "ProtocolName": "cmrr_mbep2d_bold_AP_run5",
        "RepetitionTime": 2600.0,
        "Rows": 1316,
        "SAR": 0.0480849242847,
        "SamplesPerPixel": 1,
        "ScanOptions": [
          "PFP",
          "FS"
        ],
        "ScanningSequence": "EP",
        "SequenceName": "epfid2d1_188",
        "SequenceVariant": [
          "SK",
          "SS"
        ],
        "SeriesDescription": "cmrr_mbep2d_bold_AP_run5",
        "SeriesNumber": 15,
        "SeriesTime": "121913.671000",
        "SliceLocation": -45.76006893791,
        "SliceThickness": 1.1000000238419,
        "SmallestImagePixelValue": 0,
        "SoftwareVersions": "syngo MR B17",
        "SpacingBetweenSlices": 1.0999999810911,
        "SpecificCharacterSet": "ISO_IR 100",
        "StudyID": "1",
        "StudyTime": "111727.046000",
        "TransmitCoilName": "32Ch_Head_7T",
        "VariableFlipAngleFlag": "N",
        "WindowCenterWidthExplanation": "Algo1",
        "dBdt": 0.0
      },
      "slices": {}
    },
    "modality": "bold",
    "run_id": 5,
    "session_id": "SES02",
    "subject_id": "S07",
    "task_id": "auditory",
    "time": {
      "samples": {
        "AcquisitionNumber": [
          1,
          2,
          3,
          4,
          5,
          6,
          7,
          8,
          9,
          10,
          11,
          12,
          13,
          14,
          15,
          16,
          17,
          18,
          19,
          20,
          21,
          22,
          23,
          24,
          25,
          26,
          27,
          28,
          29,
          30,
          31,
          32,
          33,
          34,
          35,
          36,
          37,
          38,
          39,
          40,
          41,
          42,
          43,
          44,
          45,
          46,
          47,
          48,
          49,
          50,
          51,
          52,
          53,
          54,
          55,
          56,
          57,
          58,
          59,
          60,
          61,
          62,
          63,
          64,
          65,
          66,
          67,
          68,
          69,
          70,
          71,
          72,
          73,
          74,
          75,
          76,
          77,
          78,
          79,
          80,
          81,
          82,
          83,
          84,
          85,
          86,
          87,
          88,
          89,
          90,
          91,
          92,
          93,
          94,
          95,
          96,
          97,
          98,
          99,
          100,
          101,
          102,
          103,
          104,
          105,
          106,
          107,
          108,
          109,
          110,
          111,
          112,
          113,
          114,
          115,
          116,
          117,
          118,
          119,
          120,
          121,
          122,
          123,
          124,
          125,
          126,
          127,
          128,
          129,
          130,
          131,
          132,
          133,
          134,
          135,
          136,
          137,
          138,
          139,
          140,
          141,
          142,
          143,
          144,
          145,
          146,
          147,
          148,
          149,
          150
        ],
        "AcquisitionTime": [
          "121904.210000",
          "121906.822500",
          "121909.432500",
          "121912.042500",
          "121914.652500",
          "121917.262500",
          "121919.875000",
          "121922.485000",
          "121925.095000",
          "121927.705000",
          "121930.315000",
          "121932.925000",
          "121935.537500",
          "121938.147500",
          "121940.757500",
          "121943.367500",
          "121945.977500",
          "121948.590000",
          "121951.200000",
          "121953.810000",
          "121956.420000",
          "121959.030000",
          "122001.640000",
          "122004.252500",
          "122006.862500",
          "122009.472500",
          "122012.082500",
          "122014.692500",
          "122017.302500",
          "122019.915000",
          "122022.525000",
          "122025.135000",
          "122027.745000",
          "122030.355000",
          "122032.967500",
          "122035.577500",
          "122038.187500",
          "122040.797500",
          "122043.407500",
          "122046.017500",
          "122048.630000",
          "122051.240000",
          "122053.850000",
          "122056.460000",
          "122059.070000",
          "122101.680000",
          "122104.292500",
          "122106.902500",
          "122109.512500",
          "122112.122500",
          "122114.732500",
          "122117.345000",
          "122119.955000",
          "122122.565000",
          "122125.175000",
          "122127.785000",
          "122130.395000",
          "122133.007500",
          "122135.617500",
          "122138.227500",
          "122140.837500",
          "122143.447500",
          "122146.057500",
          "122148.670000",
          "122151.280000",
          "122153.890000",
          "122156.500000",
          "122159.110000",
          "122201.722500",
          "122204.332500",
          "122206.942500",
          "122209.552500",
          "122212.162500",
          "122214.772500",
          "122217.385000",
          "122219.995000",
          "122222.605000",
          "122225.215000",
          "122227.825000",
          "122230.435000",
          "122233.047500",
          "122235.657500",
          "122238.267500",
          "122240.877500",
          "122243.487500",
          "122246.100000",
          "122248.710000",
          "122251.320000",
          "122253.930000",
          "122256.540000",
          "122259.150000",
          "122301.762500",
          "122304.372500",
          "122306.982500",
          "122309.592500",
          "122312.202500",
          "122314.812500",
          "122317.425000",
          "122320.035000",
          "122322.645000",
          "122325.255000",
          "122327.865000",
          "122330.477500",
          "122333.087500",
          "122335.697500",
          "122338.307500",
          "122340.917500",
          "122343.527500",
          "122346.140000",
          "122348.750000",
          "122351.360000",
          "122353.970000",
          "122356.580000",
          "122359.190000",
          "122401.802500",
          "122404.412500",
          "122407.022500",
          "122409.632500",
          "122412.242500",
          "122414.855000",
          "122417.465000",
          "122420.075000",
          "122422.685000",
          "122425.295000",
          "122427.905000",
          "122430.517500",
          "122433.127500",
          "122435.737500",
          "122438.347500",
          "122440.957500",
          "122443.567500",
          "122446.180000",
          "122448.790000",
          "122451.400000",
          "122454.010000",
          "122456.620000",
          "122459.232500",
          "122501.842500",
          "122504.452500",
          "122507.062500",
          "122509.672500",
          "122512.282500",
          "122514.895000",
          "122517.505000",
          "122520.115000",
          "122522.725000",
          "122525.335000",
          "122527.945000",
          "122530.557500",
          "122533.167500"
        ],
        "ContentTime": [
          "121913.671000",
          "121914.171000",
          "121914.671000",
          "121916.671000",
          "121919.171000",
          "121922.171000",
          "121924.671000",
          "121927.156000",
          "121929.671000",
          "121932.171000",
          "121934.671000",
          "121937.671000",
          "121940.171000",
          "121942.671000",
          "121945.171000",
          "121947.671000",
          "121950.671000",
          "121953.171000",
          "121955.671000",
          "121958.156000",
          "122000.671000",
          "122003.671000",
          "122006.171000",
          "122008.671000",
          "122011.171000",
          "122013.671000",
          "122016.671000",
          "122019.171000",
          "122021.671000",
          "122024.171000",
          "122026.671000",
          "122029.671000",
          "122032.171000",
          "122034.671000",
          "122037.156000",
          "122039.671000",
          "122042.671000",
          "122045.171000",
          "122047.656000",
          "122050.171000",
          "122052.671000",
          "122055.671000",
          "122058.171000",
          "122100.671000",
          "122103.171000",
          "122105.671000",
          "122108.671000",
          "122111.171000",
          "122113.671000",
          "122116.171000",
          "122118.671000",
          "122121.671000",
          "122124.171000",
          "122126.671000",
          "122129.171000",
          "122131.671000",
          "122134.671000",
          "122137.171000",
          "122139.671000",
          "122142.171000",
          "122144.671000",
          "122147.671000",
          "122150.171000",
          "122152.671000",
          "122155.171000",
          "122157.671000",
          "122200.671000",
          "122203.171000",
          "122205.671000",
          "122208.171000",
          "122210.671000",
          "122213.671000",
          "122216.171000",
          "122218.671000",
          "122221.171000",
          "122224.171000",
          "122226.671000",
          "122229.171000",
          "122231.671000",
          "122234.171000",
          "122236.671000",
          "122239.671000",
          "122242.171000",
          "122244.671000",
          "122247.156000",
          "122249.671000",
          "122252.671000",
          "122255.171000",
          "122257.671000",
          "122300.171000",
          "122302.671000",
          "122305.671000",
          "122308.171000",
          "122310.671000",
          "122313.171000",
          "122315.671000",
          "122318.671000",
          "122321.171000",
          "122323.671000",
          "122326.171000",
          "122329.171000",
          "122331.671000",
          "122334.171000",
          "122336.671000",
          "122339.171000",
          "122341.671000",
          "122344.671000",
          "122347.156000",
          "122349.671000",
          "122352.171000",
          "122354.671000",
          "122357.671000",
          "122400.171000",
          "122402.671000",
          "122405.171000",
          "122408.171000",
          "122410.671000",
          "122413.171000",
          "122415.671000",
          "122418.171000",
          "122420.671000",
          "122423.671000",
          "122426.171000",
          "122428.671000",
          "122431.171000",
          "122433.671000",
          "122436.671000",
          "122439.171000",
          "122441.671000",
          "122444.171000",
          "122447.156000",
          "122449.671000",
          "122452.171000",
          "122454.671000",
          "122457.156000",
          "122500.171000",
          "122502.671000",
          "122505.171000",
          "122507.671000",
          "122510.171000",
          "122512.671000",
          "122515.656000",
          "122518.171000",
          "122520.671000",
          "122523.171000",
          "122525.671000",
          "122528.671000",
          "122531.171000",
          "122533.671000",
          "122541.031000"
        ],
        "InstanceCreationTime": [
          "121913.671000",
          "121914.171000",
          "121914.671000",
          "121916.671000",
          "121919.171000",
          "121922.171000",
          "121924.671000",
          "121927.156000",
          "121929.671000",
          "121932.171000",
          "121934.671000",
          "121937.671000",
          "121940.171000",
          "121942.671000",
          "121945.171000",
          "121947.671000",
          "121950.671000",
          "121953.171000",
          "121955.671000",
          "121958.156000",
          "122000.671000",
          "122003.671000",
          "122006.171000",
          "122008.671000",
          "122011.171000",
          "122013.671000",
          "122016.671000",
          "122019.171000",
          "122021.671000",
          "122024.171000",
          "122026.671000",
          "122029.671000",
          "122032.171000",
          "122034.671000",
          "122037.156000",
          "122039.671000",
          "122042.671000",
          "122045.171000",
          "122047.656000",
          "122050.171000",
          "122052.671000",
          "122055.671000",
          "122058.171000",
          "122100.671000",
          "122103.171000",
          "122105.671000",
          "122108.671000",
          "122111.171000",
          "122113.671000",
          "122116.171000",
          "122118.671000",
          "122121.671000",
          "122124.171000",
          "122126.671000",
          "122129.171000",
          "122131.671000",
          "122134.671000",
          "122137.171000",
          "122139.671000",
          "122142.171000",
          "122144.671000",
          "122147.671000",
          "122150.171000",
          "122152.671000",
          "122155.171000",
          "122157.671000",
          "122200.671000",
          "122203.171000",
          "122205.671000",
          "122208.171000",
          "122210.671000",
          "122213.671000",
          "122216.171000",
          "122218.671000",
          "122221.171000",
          "122224.171000",
          "122226.671000",
          "122229.171000",
          "122231.671000",
          "122234.171000",
          "122236.671000",
          "122239.671000",
          "122242.171000",
          "122244.671000",
          "122247.156000",
          "122249.671000",
          "122252.671000",
          "122255.171000",
          "122257.671000",
          "122300.171000",
          "122302.671000",
          "122305.671000",
          "122308.171000",
          "122310.671000",
          "122313.171000",
          "122315.671000",
          "122318.671000",
          "122321.171000",
          "122323.671000",
          "122326.171000",
          "122329.171000",
          "122331.671000",
          "122334.171000",
          "122336.671000",
          "122339.171000",
          "122341.671000",
          "122344.671000",
          "122347.156000",
          "122349.671000",
          "122352.171000",
          "122354.671000",
          "122357.671000",
          "122400.171000",
          "122402.671000",
          "122405.171000",
          "122408.171000",
          "122410.671000",
          "122413.171000",
          "122415.671000",
          "122418.171000",
          "122420.671000",
          "122423.671000",
          "122426.171000",
          "122428.671000",
          "122431.171000",
          "122433.671000",
          "122436.671000",
          "122439.171000",
          "122441.671000",
          "122444.171000",
          "122447.156000",
          "122449.671000",
          "122452.171000",
          "122454.671000",
          "122457.156000",
          "122500.171000",
          "122502.671000",
          "122505.171000",
          "122507.671000",
          "122510.171000",
          "122512.671000",
          "122515.656000",
          "122518.171000",
          "122520.671000",
          "122523.171000",
          "122525.671000",
          "122528.671000",
          "122531.171000",
          "122533.671000",
          "122541.031000"
        ],
        "InstanceNumber": [
          1,
          2,
          3,
          4,
          5,
          6,
          7,
          8,
          9,
          10,
          11,
          12,
          13,
          14,
          15,
          16,
          17,
          18,
          19,
          20,
          21,
          22,
          23,
          24,
          25,
          26,
          27,
          28,
          29,
          30,
          31,
          32,
          33,
          34,
          35,
          36,
          37,
          38,
          39,
          40,
          41,
          42,
          43,
          44,
          45,
          46,
          47,
          48,
          49,
          50,
          51,
          52,
          53,
          54,
          55,
          56,
          57,
          58,
          59,
          60,
          61,
          62,
          63,
          64,
          65,
          66,
          67,
          68,
          69,
          70,
          71,
          72,
          73,
          74,
          75,
          76,
          77,
          78,
          79,
          80,
          81,
          82,
          83,
          84,
          85,
          86,
          87,
          88,
          89,
          90,
          91,
          92,
          93,
          94,
          95,
          96,
          97,
          98,
          99,
          100,
          101,
          102,
          103,
          104,
          105,
          106,
          107,
          108,
          109,
          110,
          111,
          112,
          113,
          114,
          115,
          116,
          117,
          118,
          119,
          120,
          121,
          122,
          123,
          124,
          125,
          126,
          127,
          128,
          129,
          130,
          131,
          132,
          133,
          134,
          135,
          136,
          137,
          138,
          139,
          140,
          141,
          142,
          143,
          144,
          145,
          146,
          147,
          148,
          149,
          150
        ],
        "LargestImagePixelValue": [
          3959,
          3970,
          3832,
          3768,
          3638,
          3711,
          3752,
          3786,
          3794,
          3767,
          3749,
          3679,
          3716,
          3710,
          3827,
          3797,
          3866,
          3738,
          3825,
          3720,
          3835,
          3862,
          3830,
          3757,
          3700,
          3698,
          3697,
          3872,
          3848,
          3777,
          3862,
          3888,
          3810,
          3865,
          3775,
          3825,
          3822,
          3924,
          3895,
          3868,
          3873,
          3777,
          3851,
          3924,
          3944,
          3911,
          3855,
          3884,
          3974,
          3889,
          3909,
          3915,
          3797,
          3853,
          3771,
          3811,
          3855,
          3816,
          3866,
          3849,
          3812,
          3846,
          3757,
          3816,
          3795,
          3846,
          3922,
          3805,
          3859,
          3814,
          3869,
          3785,
          3824,
          3817,
          3777,
          3815,
          3821,
          3840,
          3871,
          3900,
          3695,
          3775,
          3873,
          3736,
          3714,
          3881,
          3738,
          3724,
          3908,
          3885,
          3819,
          3824,
          3802,
          3793,
          3805,
          3751,
          3851,
          3788,
          3820,
          3754,
          3867,
          3824,
          3792,
          3752,
          3714,
          3783,
          4034,
          3817,
          3682,
          3690,
          3764,
          3729,
          3841,
          3695,
          3817,
          4001,
          3735,
          3750,
          3759,
          3813,
          3866,
          3925,
          3961,
          3869,
          3716,
          3756,
          3942,
          3874,
          3810,
          3841,
          3703,
          3859,
          3770,
          3755,
          3847,
          3771,
          3793,
          3883,
          3853,
          3843,
          4035,
          3960,
          3886,
          3823,
          3769,
          3700,
          3743,
          3697,
          3741,
          3824
        ],
        "WindowCenter": [
          787.0,
          783.0,
          782.0,
          784.0,
          785.0,
          787.0,
          788.0,
          788.0,
          785.0,
          783.0,
          785.0,
          787.0,
          785.0,
          786.0,
          788.0,
          786.0,
          785.0,
          782.0,
          781.0,
          783.0,
          786.0,
          785.0,
          784.0,
          787.0,
          788.0,
          785.0,
          784.0,
          786.0,
          788.0,
          786.0,
          784.0,
          785.0,
          786.0,
          786.0,
          784.0,
          784.0,
          787.0,
          785.0,
          783.0,
          787.0,
          788.0,
          786.0,
          784.0,
          783.0,
          784.0,
          784.0,
          785.0,
          785.0,
          784.0,
          783.0,
          785.0,
          786.0,
          785.0,
          787.0,
          786.0,
          784.0,
          783.0,
          784.0,
          784.0,
          783.0,
          782.0,
          784.0,
          787.0,
          784.0,
          782.0,
          784.0,
          783.0,
          782.0,
          784.0,
          787.0,
          787.0,
          784.0,
          782.0,
          782.0,
          783.0,
          782.0,
          782.0,
          784.0,
          785.0,
          786.0,
          785.0,
          784.0,
          785.0,
          785.0,
          781.0,
          781.0,
          781.0,
          781.0,
          782.0,
          784.0,
          787.0,
          785.0,
          786.0,
          782.0,
          783.0,
          784.0,
          783.0,
          782.0,
          783.0,
          784.0,
          786.0,
          784.0,
          783.0,
          783.0,
          782.0,
          783.0,
          786.0,
          784.0,
          782.0,
          782.0,
          784.0,
          783.0,
          784.0,
          784.0,
          783.0,
          782.0,
          780.0,
          782.0,
          782.0,
          782.0,
          782.0,
          782.0,
          784.0,
          784.0,
          782.0,
          784.0,
          785.0,
          783.0,
          782.0,
          783.0,
          782.0,
          782.0,
          783.0,
          785.0,
          784.0,
          783.0,
          783.0,
          784.0,
          784.0,
          783.0,
          783.0,
          785.0,
          784.0,
          782.0,
          781.0,
          783.0,
          783.0,
          783.0,
          783.0,
          783.0
        ],
        "WindowWidth": [
          1724.0,
          1712.0,
          1710.0,
          1717.0,
          1719.0,
          1723.0,
          1728.0,
          1727.0,
          1719.0,
          1714.0,
          1718.0,
          1724.0,
          1720.0,
          1721.0,
          1729.0,
          1722.0,
          1718.0,
          1709.0,
          1707.0,
          1711.0,
          1722.0,
          1719.0,
          1716.0,
          1724.0,
          1728.0,
          1719.0,
          1716.0,
          1721.0,
          1728.0,
          1720.0,
          1716.0,
          1717.0,
          1720.0,
          1721.0,
          1715.0,
          1715.0,
          1724.0,
          1718.0,
          1714.0,
          1725.0,
          1729.0,
          1720.0,
          1714.0,
          1713.0,
          1715.0,
          1717.0,
          1719.0,
          1719.0,
          1715.0,
          1713.0,
          1718.0,
          1721.0,
          1720.0,
          1725.0,
          1721.0,
          1716.0,
          1711.0,
          1715.0,
          1716.0,
          1713.0,
          1711.0,
          1717.0,
          1724.0,
          1716.0,
          1710.0,
          1717.0,
          1713.0,
          1710.0,
          1715.0,
          1725.0,
          1726.0,
          1717.0,
          1708.0,
          1709.0,
          1711.0,
          1710.0,
          1710.0,
          1715.0,
          1719.0,
          1723.0,
          1719.0,
          1716.0,
          1719.0,
          1720.0,
          1707.0,
          1706.0,
          1707.0,
          1707.0,
          1711.0,
