{
  "aor": 0.0005982666666666666,
  "aqi": 0.018597493333333333,
  "bids_meta": {
    "AcquisitionMatrixPE": 188,
    "AcquisitionNumber": 1,
    "AcquisitionTime": "12:52:54.182500",
    "BandwidthPerPixelPhaseEncode": 19.46,
    "BaseResolution": 188,
    "ConversionSoftware": "dcm2niix",
    "ConversionSoftwareVersion": "v1.0.20180606 GCC4.8.5",
    "DelayTime": 1.2,
    "DerivedVendorReportedEchoSpacing": 0.000820013,
    "DeviceSerialNumber": "18930",
    "DwellTime": 1.9e-06,
    "EchoTime": 0.02,
    "EffectiveEchoSpacing": 0.000273338,
    "FlipAngle": 80,
    "ImageComments": "Unaliased_MB2_PE2",
    "ImageOrientationPatientDICOM": [
      0.999256,
      0.0139139,
      -0.0359721,
      -0.0378856,
      0.179273,
      -0.98307
    ],
    "ImageType": [
      "ORIGINAL",
      "PRIMARY",
      "M",
      "MB",
      "ND",
      "MOSAIC"
    ],
    "InPlanePhaseEncodingDirectionDICOM": "COL",
    "InstitutionAddress": "Oxfordlaan_55_Maastricht_22AAA2_Limburg_NL_6229_EV",
    "InstitutionName": "Scannexus",
    "InstitutionalDepartmentName": "MRI_7T",
    "MRAcquisitionType": "2D",
    "MagneticFieldStrength": 6.98,
    "Manufacturer": "Siemens",
    "ManufacturersModelName": "Investigational_Device_7T",
    "Modality": "MR",
    "MultibandAccelerationFactor": 2,
    "ParallelReductionFactorInPlane": 3,
    "PartialFourier": 0.75,
    "PatientPosition": "HFS",
    "PercentPhaseFOV": 100,
    "PhaseEncodingDirection": "j",
    "PhaseEncodingSteps": 141,
    "PhaseResolution": 1,
    "PixelBandwidth": 1400,
    "ProcedureStepDescription": "FeDem_Faruk",
    "ProtocolName": "cmrr_mbep2d_bold_AP_run9",
    "PulseSequenceDetails": "%CustomerSeq%_cmrr_mbep2d_bold",
    "ReceiveCoilName": "32Ch_Head_7T",
    "ReconMatrixPE": 188,
    "RepetitionTime": 2.6,
    "SAR": 0.048192,
    "ScanOptions": "PFP_FS",
    "ScanningSequence": "EP",
    "SequenceName": "epfid2d1_188",
    "SequenceVariant": "SK_SS",
    "SeriesDescription": "cmrr_mbep2d_bold_AP_run9",
    "SeriesNumber": 21,
    "ShimSetting": [
      55,
      -15,
      448,
      370,
      -36,
      30,
      243,
      178
    ],
    "SliceThickness": 1.1,
    "SliceTiming": [
      0,
      0.7325,
      0.06,
      0.795,
      0.1225,
      0.855,
      0.1825,
      0.9175,
      0.245,
      0.9775,
      0.305,
      1.04,
      0.3675,
      1.1,
      0.4275,
      1.16,
      0.49,
      1.2225,
      0.55,
      1.2825,
      0.61,
      1.345,
      0.6725,
      0,
      0.7325,
      0.06,
      0.795,
      0.1225,
      0.855,
      0.1825,
      0.9175,
      0.245,
      0.9775,
      0.305,
      1.04,
      0.3675,
      1.1,
      0.4275,
      1.16,
      0.49,
      1.2225,
      0.55,
      1.2825,
      0.61,
      1.345,
      0.6725
    ],
    "SoftwareVersions": "syngo_MR_B17",
    "SpacingBetweenSlices": 1.1,
    "StationName": "MRC18930",
    "TaskName": "auditory",
    "TotalReadoutTime": 0.0511141,
    "TxRefAmp": 190,
    "dataset": "ds001942",
    "dcmmeta_affine": [
      [
        -1.0949294567108154,
        -0.04151299595832825,
        0.00795249454677105,
        105.62162017822266
      ],
      [
        -0.015246137045323849,
        0.19643795490264893,
        -1.0820709466934204,
        25.347135543823242
      ],
      [
        -0.03941621631383896,
        1.077193260192871,
        0.19763392210006714,
        -120.16474914550781
      ],
      [
        0.0,
        0.0,
        0.0,
        1.0
      ]
    ],
    "dcmmeta_reorient_transform": [
      [
        0.0,
        -1.0,
        0.0,
        187.0
      ],
      [
        1.0,
        0.0,
        0.0,
        0.0
      ],
      [
        0.0,
        0.0,
        1.0,
        0.0
      ],
      [
        0.0,
        0.0,
        0.0,
        1.0
      ]
    ],
    "dcmmeta_shape": [
      188,
      188,
      46,
      150
    ],
    "dcmmeta_slice_dim": 2,
    "dcmmeta_version": 0.6,
    "global": {
      "const": {
        "AcquisitionMatrix": [
          188,
          0,
          0,
          188
        ],
        "AngioFlag": "N",
        "BitsAllocated": 16,
        "BitsStored": 12,
        "Columns": 1316,
        "EchoNumbers": 1,
        "EchoTime": 20.0,
        "EchoTrainLength": 1,
        "FlipAngle": 80.0,
        "HighBit": 11,
        "ImageOrientationPatient": [
          0.99925592893624,
          0.01391394956493,
          -0.0359720793573,
          -0.0378856467098,
          0.17927346063987,
          -0.9830695316627
        ],
        "ImagePositionPatient": [
          -691.98555317959,
          -181.47085669729,
          711.03813114893
        ],
        "ImageType": [
          "ORIGINAL",
          "PRIMARY",
          "M",
          "MB",
          "ND",
          "MOSAIC"
        ],
        "ImagedNucleus": "1H",
        "ImagingFrequency": 297.205672,
        "InPlanePhaseEncodingDirection": "COL",
        "MRAcquisitionType": "2D",
        "MagneticFieldStrength": 6.98,
        "Manufacturer": "SIEMENS",
        "ManufacturerModelName": "Investigational_Device_7T",
        "Modality": "MR",
        "NumberOfAverages": 1.0,
        "NumberOfPhaseEncodingSteps": 141,
        "PercentPhaseFieldOfView": 100.0,
        "PercentSampling": 100.0,
        "PerformedProcedureStepStartTime": "111727.156000",
        "PhotometricInterpretation": "MONOCHROME2",
        "PixelBandwidth": 1400.0,
        "PixelRepresentation": 0,
        "PixelSpacing": [
          1.0957447290421,
          1.0957447290421
        ],
        "ProtocolName": "cmrr_mbep2d_bold_AP_run9",
        "RepetitionTime": 2600.0,
        "Rows": 1316,
        "SAR": 0.04819200880486,
        "SamplesPerPixel": 1,
        "ScanOptions": [
          "PFP",
          "FS"
        ],
        "ScanningSequence": "EP",
        "SequenceName": "epfid2d1_188",
        "SequenceVariant": [
          "SK",
          "SS"
        ],
        "SeriesDescription": "cmrr_mbep2d_bold_AP_run9",
        "SeriesNumber": 21,
        "SeriesTime": "125303.703000",
        "SliceLocation": -45.76006893791,
        "SliceThickness": 1.1000000238419,
        "SmallestImagePixelValue": 0,
        "SoftwareVersions": "syngo MR B17",
        "SpacingBetweenSlices": 1.0999999810911,
        "SpecificCharacterSet": "ISO_IR 100",
        "StudyID": "1",
        "StudyTime": "111727.046000",
        "TransmitCoilName": "32Ch_Head_7T",
        "VariableFlipAngleFlag": "N",
        "WindowCenterWidthExplanation": "Algo1",
        "dBdt": 0.0
      },
      "slices": {}
    },
    "modality": "bold",
    "run_id": 9,
    "session_id": "SES02",
    "subject_id": "S07",
    "task_id": "auditory",
    "time": {
      "samples": {
        "AcquisitionNumber": [
          1,
          2,
          3,
          4,
          5,
          6,
          7,
          8,
          9,
          10,
          11,
          12,
          13,
          14,
          15,
          16,
          17,
          18,
          19,
          20,
          21,
          22,
          23,
          24,
          25,
          26,
          27,
          28,
          29,
          30,
          31,
          32,
          33,
          34,
          35,
          36,
          37,
          38,
          39,
          40,
          41,
          42,
          43,
          44,
          45,
          46,
          47,
          48,
          49,
          50,
          51,
          52,
          53,
          54,
          55,
          56,
          57,
          58,
          59,
          60,
          61,
          62,
          63,
          64,
          65,
          66,
          67,
          68,
          69,
          70,
          71,
          72,
          73,
          74,
          75,
          76,
          77,
          78,
          79,
          80,
          81,
          82,
          83,
          84,
          85,
          86,
          87,
          88,
          89,
          90,
          91,
          92,
          93,
          94,
          95,
          96,
          97,
          98,
          99,
          100,
          101,
          102,
          103,
          104,
          105,
          106,
          107,
          108,
          109,
          110,
          111,
          112,
          113,
          114,
          115,
          116,
          117,
          118,
          119,
          120,
          121,
          122,
          123,
          124,
          125,
          126,
          127,
          128,
          129,
          130,
          131,
          132,
          133,
          134,
          135,
          136,
          137,
          138,
          139,
          140,
          141,
          142,
          143,
          144,
          145,
          146,
          147,
          148,
          149,
          150
        ],
        "AcquisitionTime": [
          "125254.182500",
          "125256.792500",
          "125259.402500",
          "125302.015000",
          "125304.625000",
          "125307.235000",
          "125309.845000",
          "125312.455000",
          "125315.065000",
          "125317.677500",
          "125320.287500",
          "125322.897500",
          "125325.507500",
          "125328.117500",
          "125330.730000",
          "125333.340000",
          "125335.950000",
          "125338.560000",
          "125341.170000",
          "125343.780000",
          "125346.392500",
          "125349.002500",
          "125351.612500",
          "125354.222500",
          "125356.832500",
          "125359.442500",
          "125402.055000",
          "125404.665000",
          "125407.275000",
          "125409.885000",
          "125412.495000",
          "125415.107500",
          "125417.717500",
          "125420.327500",
          "125422.937500",
          "125425.547500",
          "125428.157500",
          "125430.770000",
          "125433.380000",
          "125435.990000",
          "125438.600000",
          "125441.210000",
          "125443.820000",
          "125446.432500",
          "125449.042500",
          "125451.652500",
          "125454.262500",
          "125456.872500",
          "125459.485000",
          "125502.095000",
          "125504.705000",
          "125507.315000",
          "125509.925000",
          "125512.535000",
          "125515.147500",
          "125517.757500",
          "125520.367500",
          "125522.977500",
          "125525.587500",
          "125528.197500",
          "125530.810000",
          "125533.420000",
          "125536.030000",
          "125538.640000",
          "125541.250000",
          "125543.862500",
          "125546.472500",
          "125549.082500",
          "125551.692500",
          "125554.302500",
          "125556.912500",
          "125559.525000",
          "125602.135000",
          "125604.745000",
          "125607.355000",
          "125609.965000",
          "125612.575000",
          "125615.187500",
          "125617.797500",
          "125620.407500",
          "125623.017500",
          "125625.627500",
          "125628.240000",
          "125630.850000",
          "125633.460000",
          "125636.070000",
          "125638.680000",
          "125641.290000",
          "125643.902500",
          "125646.512500",
          "125649.122500",
          "125651.732500",
          "125654.342500",
          "125656.952500",
          "125659.565000",
          "125702.175000",
          "125704.785000",
          "125707.395000",
          "125710.005000",
          "125712.617500",
          "125715.227500",
          "125717.837500",
          "125720.447500",
          "125723.057500",
          "125725.667500",
          "125728.280000",
          "125730.890000",
          "125733.500000",
          "125736.110000",
          "125738.720000",
          "125741.330000",
          "125743.942500",
          "125746.552500",
          "125749.162500",
          "125751.772500",
          "125754.382500",
          "125756.995000",
          "125759.605000",
          "125802.215000",
          "125804.825000",
          "125807.435000",
          "125810.045000",
          "125812.657500",
          "125815.267500",
          "125817.877500",
          "125820.487500",
          "125823.097500",
          "125825.707500",
          "125828.320000",
          "125830.930000",
          "125833.540000",
          "125836.150000",
          "125838.760000",
          "125841.372500",
          "125843.982500",
          "125846.592500",
          "125849.202500",
          "125851.812500",
          "125854.422500",
          "125857.035000",
          "125859.645000",
          "125902.255000",
          "125904.865000",
          "125907.475000",
          "125910.085000",
          "125912.697500",
          "125915.307500",
          "125917.917500",
          "125920.527500",
          "125923.137500"
        ],
        "ContentTime": [
          "125303.703000",
          "125304.703000",
          "125304.703000",
          "125306.703000",
          "125309.203000",
          "125312.203000",
          "125314.703000",
          "125317.203000",
          "125319.703000",
          "125322.203000",
          "125325.203000",
          "125327.703000",
          "125330.203000",
          "125332.703000",
          "125335.203000",
          "125338.203000",
          "125340.703000",
          "125343.203000",
          "125345.703000",
          "125348.203000",
          "125351.203000",
          "125353.703000",
          "125356.203000",
          "125358.703000",
          "125401.203000",
          "125404.203000",
          "125406.703000",
          "125409.203000",
          "125411.703000",
          "125414.203000",
          "125417.203000",
          "125419.703000",
          "125422.203000",
          "125424.703000",
          "125427.203000",
          "125430.203000",
          "125432.703000",
          "125435.203000",
          "125437.703000",
          "125440.203000",
          "125443.203000",
          "125445.703000",
          "125448.203000",
          "125450.703000",
          "125453.203000",
          "125456.203000",
          "125458.703000",
          "125501.203000",
          "125503.703000",
          "125506.203000",
          "125509.203000",
          "125511.703000",
          "125514.203000",
          "125516.703000",
          "125519.203000",
          "125522.203000",
          "125524.703000",
          "125527.203000",
          "125529.703000",
          "125532.203000",
          "125535.203000",
          "125537.703000",
          "125540.203000",
          "125542.703000",
          "125545.203000",
          "125548.203000",
          "125550.703000",
          "125553.203000",
          "125555.703000",
          "125558.203000",
          "125601.203000",
          "125603.703000",
          "125606.203000",
          "125608.703000",
          "125611.203000",
          "125614.203000",
          "125616.703000",
          "125619.203000",
          "125621.703000",
          "125624.203000",
          "125627.203000",
          "125629.703000",
          "125632.203000",
          "125634.703000",
          "125637.203000",
          "125640.203000",
          "125642.703000",
          "125645.203000",
          "125647.703000",
          "125650.203000",
          "125653.203000",
          "125655.703000",
          "125658.203000",
          "125700.703000",
          "125703.203000",
          "125706.203000",
          "125708.703000",
          "125711.203000",
          "125713.703000",
          "125716.203000",
          "125719.203000",
          "125721.703000",
          "125724.203000",
          "125726.703000",
          "125729.203000",
          "125732.203000",
          "125734.703000",
          "125737.203000",
          "125739.703000",
          "125742.203000",
          "125745.203000",
          "125747.703000",
          "125750.203000",
          "125752.703000",
          "125755.203000",
          "125758.203000",
          "125800.703000",
          "125803.203000",
          "125805.703000",
          "125808.203000",
          "125811.203000",
          "125813.703000",
          "125816.203000",
          "125818.703000",
          "125821.203000",
          "125824.203000",
          "125826.703000",
          "125829.203000",
          "125831.703000",
          "125834.203000",
          "125837.203000",
          "125839.703000",
          "125842.203000",
          "125844.703000",
          "125847.203000",
          "125850.203000",
          "125852.703000",
          "125855.203000",
          "125857.703000",
          "125900.203000",
          "125903.203000",
          "125905.703000",
          "125908.203000",
          "125910.703000",
          "125913.203000",
          "125916.203000",
          "125918.703000",
          "125921.203000",
          "125923.703000",
          "125931.109000"
        ],
        "InstanceCreationTime": [
          "125303.703000",
          "125304.703000",
          "125304.703000",
          "125306.703000",
          "125309.203000",
          "125312.203000",
          "125314.703000",
          "125317.203000",
          "125319.703000",
          "125322.203000",
          "125325.203000",
          "125327.703000",
          "125330.203000",
          "125332.703000",
          "125335.203000",
          "125338.203000",
          "125340.703000",
          "125343.203000",
          "125345.703000",
          "125348.203000",
          "125351.203000",
          "125353.703000",
          "125356.203000",
          "125358.703000",
          "125401.203000",
          "125404.203000",
          "125406.703000",
          "125409.203000",
          "125411.703000",
          "125414.203000",
          "125417.203000",
          "125419.703000",
          "125422.203000",
          "125424.703000",
          "125427.203000",
          "125430.203000",
          "125432.703000",
          "125435.203000",
          "125437.703000",
          "125440.203000",
          "125443.203000",
          "125445.703000",
          "125448.203000",
          "125450.703000",
          "125453.203000",
          "125456.203000",
          "125458.703000",
          "125501.203000",
          "125503.703000",
          "125506.203000",
          "125509.203000",
          "125511.703000",
          "125514.203000",
          "125516.703000",
          "125519.203000",
          "125522.203000",
          "125524.703000",
          "125527.203000",
          "125529.703000",
          "125532.203000",
          "125535.203000",
          "125537.703000",
          "125540.203000",
          "125542.703000",
          "125545.203000",
          "125548.203000",
          "125550.703000",
          "125553.203000",
          "125555.703000",
          "125558.203000",
          "125601.203000",
          "125603.703000",
          "125606.203000",
          "125608.703000",
          "125611.203000",
          "125614.203000",
          "125616.703000",
          "125619.203000",
          "125621.703000",
          "125624.203000",
          "125627.203000",
          "125629.703000",
          "125632.203000",
          "125634.703000",
          "125637.203000",
          "125640.203000",
          "125642.703000",
          "125645.203000",
          "125647.703000",
          "125650.203000",
          "125653.203000",
          "125655.703000",
          "125658.203000",
          "125700.703000",
          "125703.203000",
          "125706.203000",
          "125708.703000",
          "125711.203000",
          "125713.703000",
          "125716.203000",
          "125719.203000",
          "125721.703000",
          "125724.203000",
          "125726.703000",
          "125729.203000",
          "125732.203000",
          "125734.703000",
          "125737.203000",
          "125739.703000",
          "125742.203000",
          "125745.203000",
          "125747.703000",
          "125750.203000",
          "125752.703000",
          "125755.203000",
          "125758.203000",
          "125800.703000",
          "125803.203000",
          "125805.703000",
          "125808.203000",
          "125811.203000",
          "125813.703000",
          "125816.203000",
          "125818.703000",
          "125821.203000",
          "125824.203000",
          "125826.703000",
          "125829.203000",
          "125831.703000",
          "125834.203000",
          "125837.203000",
          "125839.703000",
          "125842.203000",
          "125844.703000",
          "125847.203000",
          "125850.203000",
          "125852.703000",
          "125855.203000",
          "125857.703000",
          "125900.203000",
          "125903.203000",
          "125905.703000",
          "125908.203000",
          "125910.703000",
          "125913.203000",
          "125916.203000",
          "125918.703000",
          "125921.203000",
          "125923.703000",
          "125931.109000"
        ],
        "InstanceNumber": [
          1,
          2,
          3,
          4,
          5,
          6,
          7,
          8,
          9,
          10,
          11,
          12,
          13,
          14,
          15,
          16,
          17,
          18,
          19,
          20,
          21,
          22,
          23,
          24,
          25,
          26,
          27,
          28,
          29,
          30,
          31,
          32,
          33,
          34,
          35,
          36,
          37,
          38,
          39,
          40,
          41,
          42,
          43,
          44,
          45,
          46,
          47,
          48,
          49,
          50,
          51,
          52,
          53,
          54,
          55,
          56,
          57,
          58,
          59,
          60,
          61,
          62,
          63,
          64,
          65,
          66,
          67,
          68,
          69,
          70,
          71,
          72,
          73,
          74,
          75,
          76,
          77,
          78,
          79,
          80,
          81,
          82,
          83,
          84,
          85,
          86,
          87,
          88,
          89,
          90,
          91,
          92,
          93,
          94,
          95,
          96,
          97,
          98,
          99,
          100,
          101,
          102,
          103,
          104,
          105,
          106,
          107,
          108,
          109,
          110,
          111,
          112,
          113,
          114,
          115,
          116,
          117,
          118,
          119,
          120,
          121,
          122,
          123,
          124,
          125,
          126,
          127,
          128,
          129,
          130,
          131,
          132,
          133,
          134,
          135,
          136,
          137,
          138,
          139,
          140,
          141,
          142,
          143,
          144,
          145,
          146,
          147,
          148,
          149,
          150
        ],
        "LargestImagePixelValue": [
          3926,
          3862,
          3824,
          3778,
          3798,
          3716,
          3683,
          3810,
          3655,
          3690,
          3746,
          3692,
          3716,
          3726,
          3773,
          3764,
          3783,
          3736,
          3789,
          3690,
          3724,
          3658,
          3707,
          3676,
          3686,
          3677,
          3647,
          3674,
          3723,
          3721,
          3782,
          3750,
          3694,
          3717,
          3662,
          3641,
          3652,
          3732,
          3728,
          3728,
          3802,
          3753,
          3691,
          3886,
          3962,
          3964,
          4020,
          3899,
          3872,
          4072,
          3905,
          3783,
          3981,
          4021,
          4095,
          4095,
          4095,
          4095,
          4095,
          3967,
          4085,
          3951,
          4049,
          3989,
          4000,
          3934,
          3970,
          3837,
          4006,
          3923,
          4072,
          3991,
          4033,
          4051,
          4095,
          4095,
          3969,
          4095,
          3904,
          4052,
          3992,
          3999,
          4095,
          3977,
          4095,
          3925,
          4095,
          3995,
          3966,
          4050,
          4095,
          4002,
          3819,
          3967,
          4095,
          4074,
          4000,
          3983,
          4019,
          4095,
          4095,
          4095,
          4095,
          4095,
          4095,
          4095,
          4095,
          4080,
          4095,
          4017,
          4095,
          4095,
          4095,
          4095,
          4092,
          4019,
          4095,
          4095,
          4095,
          4049,
          4095,
          4095,
          4095,
          4095,
          4095,
          4095,
          4095,
          4095,
          4095,
          4095,
          4095,
          4095,
          4095,
          4095,
          4095,
          4095,
          4095,
          4095,
          4095,
          4095,
          4095,
          4095,
          4095,
          4088,
          4095,
          4095,
          4095,
          4095,
          4095,
          4095
        ],
        "WindowCenter": [
          784.0,
          783.0,
          784.0,
          785.0,
          784.0,
          784.0,
          782.0,
          782.0,
          782.0,
          783.0,
          784.0,
          784.0,
          782.0,
          783.0,
          785.0,
          785.0,
          784.0,
          783.0,
          785.0,
          783.0,
          782.0,
          783.0,
          786.0,
          784.0,
          784.0,
          786.0,
          783.0,
          782.0,
          782.0,
          782.0,
          783.0,
          784.0,
          784.0,
          781.0,
          780.0,
          782.0,
          782.0,
          782.0,
          783.0,
          783.0,
          783.0,
          783.0,
          784.0,
          787.0,
          784.0,
          783.0,
          784.0,
          784.0,
          783.0,
          782.0,
          784.0,
          784.0,
          784.0,
          784.0,
          785.0,
          783.0,
          782.0,
          786.0,
          788.0,
          785.0,
          784.0,
          784.0,
          786.0,
          784.0,
          783.0,
          784.0,
          784.0,
          783.0,
          782.0,
          783.0,
          784.0,
          784.0,
          784.0,
          784.0,
          784.0,
          784.0,
          784.0,
          783.0,
          783.0,
          786.0,
          784.0,
          782.0,
          783.0,
          786.0,
          784.0,
          784.0,
          784.0,
          782.0,
          782.0,
          783.0,
          784.0,
          782.0,
          782.0,
          786.0,
          785.0,
          784.0,
          782.0,
          782.0,
          784.0,
          785.0,
          783.0,
          783.0,
          785.0,
          785.0,
          783.0,
          785.0,
          785.0,
          785.0,
          783.0,
          782.0,
          784.0,
          784.0,
          784.0,
          783.0,
          782.0,
          785.0,
          786.0,
          782.0,
          780.0,
          782.0,
          785.0,
          785.0,
          784.0,
          784.0,
          785.0,
          784.0,
          784.0,
          784.0,
          783.0,
          783.0,
          784.0,
          783.0,
          783.0,
          785.0,
          786.0,
          784.0,
          784.0,
          784.0,
          785.0,
          784.0,
          783.0,
          782.0,
          783.0,
          785.0,
          784.0,
          782.0,
          782.0,
          784.0,
          783.0,
          783.0
        ],
        "WindowWidth": [
          1716.0,
          1712.0,
          1714.0,
          1718.0,
          1716.0,
          1715.0,
          1710.0,
          1709.0,
          1709.0,
          1712.0,
          1717.0,
          1715.0,
          1710.0,
          1711.0,
          1717.0,
          1717.0,
          1714.0,
          1713.0,
          1717.0,
          1712.0,
          1710.0,
          1713.0,
          1722.0,
          1715.0,
          1716.0,
          1721.0,
          1712.0,
          1707.0,
          1710.0,
          1708.0,
          1711.0,
          1716.0,
          1714.0,
          1706.0,
          1704.0,
          1707.0,
          1709.0,
          1710.0,
          1712.0,
          1712.0,
          1712.0,
          1712.0,
          1716.0,
          1725.0,
          1716.0,
          1712.0,
          1714.0,
          1714.0,
          1711.0,
          1710.0,
          1714.0,
          1716.0,
          1716.0,
          1715.0,
          1720.0,
          1714.0,
          1711.0,
          1721.0,
          1728.0,
          1717.0,
          1715.0,
          1716.0,
          1721.0,
          1714.0,
          1713.0,
          1714.0,
          1715.0,
          1713.0,
          1710.0,
          1713.0,
          1716.0,
          1714.0,
          1716.0,
          1715.0,
          1715.0,
          1714.0,
          1717.0,
          1713.0,
          1712.0,
          1722.0,
          1715.0,
          1711.0,
          1714.0,
          1721.0,
          1715.0,
          1714.0,
          1717.0,
          1710.0,
          1709.0,
