{
  "aor": 0.0008858,
  "aqi": 0.012582444666666666,
  "bids_meta": {
    "AcquisitionMatrixPE": 188,
    "AcquisitionNumber": 1,
    "AcquisitionTime": "12:26:21.122500",
    "BandwidthPerPixelPhaseEncode": 19.46,
    "BaseResolution": 188,
    "ConversionSoftware": "dcm2niix",
    "ConversionSoftwareVersion": "v1.0.20180606 GCC4.8.5",
    "DelayTime": 1.2,
    "DerivedVendorReportedEchoSpacing": 0.000820013,
    "DeviceSerialNumber": "18930",
    "DwellTime": 1.9e-06,
    "EchoTime": 0.02,
    "EffectiveEchoSpacing": 0.000273338,
    "FlipAngle": 80,
    "ImageComments": "Unaliased_MB2_PE2",
    "ImageOrientationPatientDICOM": [
      0.999741,
      0.00599017,
      -0.0219662,
      -0.02273,
      0.206652,
      -0.978151
    ],
    "ImageType": [
      "ORIGINAL",
      "PRIMARY",
      "M",
      "MB",
      "ND",
      "MOSAIC"
    ],
    "InPlanePhaseEncodingDirectionDICOM": "COL",
    "InstitutionAddress": "Oxfordlaan_55_Maastricht_22AAA2_Limburg_NL_6229_EV",
    "InstitutionName": "Scannexus",
    "InstitutionalDepartmentName": "MRI_7T",
    "MRAcquisitionType": "2D",
    "MagneticFieldStrength": 6.98,
    "Manufacturer": "Siemens",
    "ManufacturersModelName": "Investigational_Device_7T",
    "Modality": "MR",
    "MultibandAccelerationFactor": 2,
    "ParallelReductionFactorInPlane": 3,
    "PartialFourier": 0.75,
    "PatientPosition": "HFS",
    "PercentPhaseFOV": 100,
    "PhaseEncodingDirection": "j",
    "PhaseEncodingSteps": 141,
    "PhaseResolution": 1,
    "PixelBandwidth": 1400,
    "ProcedureStepDescription": "FeDem_Faruk",
    "ProtocolName": "cmrr_mbep2d_bold_AP_run2",
    "PulseSequenceDetails": "%CustomerSeq%_cmrr_mbep2d_bold",
    "ReceiveCoilName": "32Ch_Head_7T",
    "ReconMatrixPE": 188,
    "RepetitionTime": 2.6,
    "SAR": 0.0572072,
    "ScanOptions": "PFP_FS",
    "ScanningSequence": "EP",
    "SequenceName": "epfid2d1_188",
    "SequenceVariant": "SK_SS",
    "SeriesDescription": "cmrr_mbep2d_bold_AP_run2",
    "SeriesNumber": 11,
    "ShimSetting": [
      69,
      -183,
      563,
      479,
      -100,
      -27,
      -134,
      84
    ],
    "SliceThickness": 1.1,
    "SliceTiming": [
      0,
      0.7325,
      0.06,
      0.795,
      0.1225,
      0.855,
      0.1825,
      0.9175,
      0.245,
      0.9775,
      0.305,
      1.0375,
      0.3675,
      1.1,
      0.4275,
      1.16,
      0.49,
      1.2225,
      0.55,
      1.2825,
      0.61,
      1.345,
      0.6725,
      0,
      0.7325,
      0.06,
      0.795,
      0.1225,
      0.855,
      0.1825,
      0.9175,
      0.245,
      0.9775,
      0.305,
      1.0375,
      0.3675,
      1.1,
      0.4275,
      1.16,
      0.49,
      1.2225,
      0.55,
      1.2825,
      0.61,
      1.345,
      0.6725
    ],
    "SoftwareVersions": "syngo_MR_B17",
    "SpacingBetweenSlices": 1.1,
    "StationName": "MRC18930",
    "TaskName": "auditory",
    "TotalReadoutTime": 0.0511141,
    "TxRefAmp": 220,
    "dataset": "ds001942",
    "dcmmeta_affine": [
      [
        -1.0954606533050537,
        -0.024906285107135773,
        0.0014519349206238985,
        102.12840270996094
      ],
      [
        -0.006563697941601276,
        0.22643741965293884,
        -1.0762360095977783,
        23.699573516845703
      ],
      [
        -0.02406933158636093,
        1.071803331375122,
        0.22740764915943146,
        -113.40309143066406
      ],
      [
        0.0,
        0.0,
        0.0,
        1.0
      ]
    ],
    "dcmmeta_reorient_transform": [
      [
        0.0,
        -1.0,
        0.0,
        187.0
      ],
      [
        1.0,
        0.0,
        0.0,
        0.0
      ],
      [
        0.0,
        0.0,
        1.0,
        0.0
      ],
      [
        0.0,
        0.0,
        0.0,
        1.0
      ]
    ],
    "dcmmeta_shape": [
      188,
      188,
      46,
      150
    ],
    "dcmmeta_slice_dim": 2,
    "dcmmeta_version": 0.6,
    "global": {
      "const": {
        "AcquisitionMatrix": [
          188,
          0,
          0,
          188
        ],
        "AngioFlag": "N",
        "BitsAllocated": 16,
        "BitsStored": 12,
        "Columns": 1316,
        "EchoNumbers": 1,
        "EchoTime": 20.0,
        "EchoTrainLength": 1,
        "FlipAngle": 80.0,
        "HighBit": 11,
        "ImageOrientationPatient": [
          0.99974076866955,
          0.00599017065832,
          -0.0219661857296,
          -0.0227300069613,
          0.20665161924358,
          -0.9781505278062
        ],
        "ImagePositionPatient": [
          -701.26360586144,
          -197.45600313121,
          705.09628048503
        ],
        "ImageType": [
          "ORIGINAL",
          "PRIMARY",
          "M",
          "MB",
          "ND",
          "MOSAIC"
        ],
        "ImagedNucleus": "1H",
        "ImagingFrequency": 297.205542,
        "InPlanePhaseEncodingDirection": "COL",
        "LargestImagePixelValue": 4095,
        "MRAcquisitionType": "2D",
        "MagneticFieldStrength": 6.98,
        "Manufacturer": "SIEMENS",
        "ManufacturerModelName": "Investigational_Device_7T",
        "Modality": "MR",
        "NumberOfAverages": 1.0,
        "NumberOfPhaseEncodingSteps": 141,
        "PercentPhaseFieldOfView": 100.0,
        "PercentSampling": 100.0,
        "PerformedProcedureStepStartTime": "115234.593000",
        "PhotometricInterpretation": "MONOCHROME2",
        "PixelBandwidth": 1400.0,
        "PixelRepresentation": 0,
        "PixelSpacing": [
          1.0957447290421,
          1.0957447290421
        ],
        "ProtocolName": "cmrr_mbep2d_bold_AP_run2",
        "RepetitionTime": 2600.0,
        "Rows": 1316,
        "SAR": 0.05720715241071,
        "SamplesPerPixel": 1,
        "ScanOptions": [
          "PFP",
          "FS"
        ],
        "ScanningSequence": "EP",
        "SequenceName": "epfid2d1_188",
        "SequenceVariant": [
          "SK",
          "SS"
        ],
        "SeriesDescription": "cmrr_mbep2d_bold_AP_run2",
        "SeriesNumber": 11,
        "SeriesTime": "122629.890000",
        "SliceLocation": -46.497067814841,
        "SliceThickness": 1.1000000238419,
        "SmallestImagePixelValue": 0,
        "SoftwareVersions": "syngo MR B17",
        "SpacingBetweenSlices": 1.1000001137539,
        "SpecificCharacterSet": "ISO_IR 100",
        "StudyID": "1",
        "StudyTime": "115234.359000",
        "TransmitCoilName": "32Ch_Head_7T",
        "VariableFlipAngleFlag": "N",
        "WindowCenterWidthExplanation": "Algo1",
        "dBdt": 0.0
      },
      "slices": {}
    },
    "modality": "bold",
    "run_id": 2,
    "session_id": "SES03",
    "subject_id": "S05",
    "task_id": "auditory",
    "time": {
      "samples": {
        "AcquisitionNumber": [
          1,
          2,
          3,
          4,
          5,
          6,
          7,
          8,
          9,
          10,
          11,
          12,
          13,
          14,
          15,
          16,
          17,
          18,
          19,
          20,
          21,
          22,
          23,
          24,
          25,
          26,
          27,
          28,
          29,
          30,
          31,
          32,
          33,
          34,
          35,
          36,
          37,
          38,
          39,
          40,
          41,
          42,
          43,
          44,
          45,
          46,
          47,
          48,
          49,
          50,
          51,
          52,
          53,
          54,
          55,
          56,
          57,
          58,
          59,
          60,
          61,
          62,
          63,
          64,
          65,
          66,
          67,
          68,
          69,
          70,
          71,
          72,
          73,
          74,
          75,
          76,
          77,
          78,
          79,
          80,
          81,
          82,
          83,
          84,
          85,
          86,
          87,
          88,
          89,
          90,
          91,
          92,
          93,
          94,
          95,
          96,
          97,
          98,
          99,
          100,
          101,
          102,
          103,
          104,
          105,
          106,
          107,
          108,
          109,
          110,
          111,
          112,
          113,
          114,
          115,
          116,
          117,
          118,
          119,
          120,
          121,
          122,
          123,
          124,
          125,
          126,
          127,
          128,
          129,
          130,
          131,
          132,
          133,
          134,
          135,
          136,
          137,
          138,
          139,
          140,
          141,
          142,
          143,
          144,
          145,
          146,
          147,
          148,
          149,
          150
        ],
        "AcquisitionTime": [
          "122621.122500",
          "122623.732500",
          "122626.342500",
          "122628.955000",
          "122631.565000",
          "122634.175000",
          "122636.785000",
          "122639.395000",
          "122642.005000",
          "122644.617500",
          "122647.227500",
          "122649.837500",
          "122652.447500",
          "122655.057500",
          "122657.667500",
          "122700.280000",
          "122702.890000",
          "122705.500000",
          "122708.110000",
          "122710.720000",
          "122713.332500",
          "122715.942500",
          "122718.552500",
          "122721.162500",
          "122723.772500",
          "122726.382500",
          "122728.995000",
          "122731.605000",
          "122734.215000",
          "122736.825000",
          "122739.435000",
          "122742.045000",
          "122744.657500",
          "122747.267500",
          "122749.877500",
          "122752.487500",
          "122755.097500",
          "122757.710000",
          "122800.320000",
          "122802.930000",
          "122805.540000",
          "122808.150000",
          "122810.760000",
          "122813.372500",
          "122815.982500",
          "122818.592500",
          "122821.202500",
          "122823.812500",
          "122826.422500",
          "122829.035000",
          "122831.645000",
          "122834.255000",
          "122836.865000",
          "122839.475000",
          "122842.087500",
          "122844.697500",
          "122847.307500",
          "122849.917500",
          "122852.527500",
          "122855.137500",
          "122857.750000",
          "122900.360000",
          "122902.970000",
          "122905.580000",
          "122908.190000",
          "122910.800000",
          "122913.412500",
          "122916.022500",
          "122918.632500",
          "122921.242500",
          "122923.852500",
          "122926.465000",
          "122929.075000",
          "122931.685000",
          "122934.295000",
          "122936.905000",
          "122939.515000",
          "122942.127500",
          "122944.737500",
          "122947.347500",
          "122949.957500",
          "122952.567500",
          "122955.177500",
          "122957.790000",
          "123000.400000",
          "123003.010000",
          "123005.620000",
          "123008.230000",
          "123010.842500",
          "123013.452500",
          "123016.062500",
          "123018.672500",
          "123021.282500",
          "123023.892500",
          "123026.505000",
          "123029.115000",
          "123031.725000",
          "123034.335000",
          "123036.945000",
          "123039.555000",
          "123042.167500",
          "123044.777500",
          "123047.387500",
          "123049.997500",
          "123052.607500",
          "123055.220000",
          "123057.830000",
          "123100.440000",
          "123103.050000",
          "123105.660000",
          "123108.270000",
          "123110.882500",
          "123113.492500",
          "123116.102500",
          "123118.712500",
          "123121.322500",
          "123123.932500",
          "123126.545000",
          "123129.155000",
          "123131.765000",
          "123134.375000",
          "123136.985000",
          "123139.597500",
          "123142.207500",
          "123144.817500",
          "123147.427500",
          "123150.037500",
          "123152.647500",
          "123155.260000",
          "123157.870000",
          "123200.480000",
          "123203.090000",
          "123205.700000",
          "123208.310000",
          "123210.922500",
          "123213.532500",
          "123216.142500",
          "123218.752500",
          "123221.362500",
          "123223.975000",
          "123226.585000",
          "123229.195000",
          "123231.805000",
          "123234.415000",
          "123237.025000",
          "123239.637500",
          "123242.247500",
          "123244.857500",
          "123247.467500",
          "123250.077500"
        ],
        "ContentTime": [
          "122629.890000",
          "122630.875000",
          "122630.890000",
          "122633.375000",
          "122635.875000",
          "122638.375000",
          "122640.875000",
          "122643.375000",
          "122646.375000",
          "122648.875000",
          "122651.375000",
          "122653.875000",
          "122656.375000",
          "122659.375000",
          "122701.875000",
          "122704.375000",
          "122706.875000",
          "122709.875000",
          "122712.375000",
          "122714.875000",
          "122717.375000",
          "122719.875000",
          "122722.375000",
          "122725.375000",
          "122727.875000",
          "122730.375000",
          "122732.875000",
          "122735.875000",
          "122738.375000",
          "122740.875000",
          "122743.375000",
          "122745.875000",
          "122748.375000",
          "122751.375000",
          "122753.875000",
          "122756.375000",
          "122758.875000",
          "122801.875000",
          "122804.375000",
          "122806.875000",
          "122809.375000",
          "122811.875000",
          "122814.875000",
          "122817.375000",
          "122819.875000",
          "122822.375000",
          "122824.875000",
          "122827.375000",
          "122830.375000",
          "122832.875000",
          "122835.375000",
          "122837.875000",
          "122840.375000",
          "122843.375000",
          "122845.875000",
          "122848.375000",
          "122850.875000",
          "122853.375000",
          "122856.375000",
          "122858.875000",
          "122901.375000",
          "122903.875000",
          "122906.375000",
          "122909.375000",
          "122911.875000",
          "122914.375000",
          "122916.875000",
          "122919.875000",
          "122922.375000",
          "122924.875000",
          "122927.375000",
          "122929.875000",
          "122932.875000",
          "122935.375000",
          "122937.875000",
          "122940.375000",
          "122942.875000",
          "122945.875000",
          "122948.375000",
          "122950.875000",
          "122953.375000",
          "122955.875000",
          "122958.875000",
          "123001.375000",
          "123003.875000",
          "123006.375000",
          "123008.875000",
          "123011.375000",
          "123014.375000",
          "123016.890000",
          "123019.375000",
          "123021.875000",
          "123024.875000",
          "123027.375000",
          "123029.875000",
          "123032.375000",
          "123034.875000",
          "123037.890000",
          "123040.375000",
          "123042.875000",
          "123045.375000",
          "123047.875000",
          "123050.875000",
          "123053.375000",
          "123055.875000",
          "123058.375000",
          "123100.875000",
          "123103.375000",
          "123106.375000",
          "123108.875000",
          "123111.375000",
          "123113.875000",
          "123116.375000",
          "123119.375000",
          "123121.875000",
          "123124.375000",
          "123126.875000",
          "123129.375000",
          "123132.375000",
          "123134.875000",
          "123137.375000",
          "123139.875000",
          "123142.875000",
          "123145.375000",
          "123147.875000",
          "123150.375000",
          "123152.875000",
          "123155.375000",
          "123158.375000",
          "123200.875000",
          "123203.375000",
          "123205.875000",
          "123208.875000",
          "123211.375000",
          "123213.875000",
          "123216.375000",
          "123218.875000",
          "123221.875000",
          "123224.375000",
          "123226.875000",
          "123229.375000",
          "123231.875000",
          "123234.875000",
          "123237.375000",
          "123239.875000",
          "123242.375000",
          "123244.875000",
          "123247.875000",
          "123250.375000",
          "123257.562000"
        ],
        "InstanceCreationTime": [
          "122629.890000",
          "122630.875000",
          "122630.890000",
          "122633.375000",
          "122635.875000",
          "122638.375000",
          "122640.875000",
          "122643.375000",
          "122646.375000",
          "122648.875000",
          "122651.375000",
          "122653.875000",
          "122656.375000",
          "122659.375000",
          "122701.875000",
          "122704.375000",
          "122706.875000",
          "122709.875000",
          "122712.375000",
          "122714.875000",
          "122717.375000",
          "122719.875000",
          "122722.375000",
          "122725.375000",
          "122727.875000",
          "122730.375000",
          "122732.875000",
          "122735.875000",
          "122738.375000",
          "122740.875000",
          "122743.375000",
          "122745.875000",
          "122748.375000",
          "122751.375000",
          "122753.875000",
          "122756.375000",
          "122758.875000",
          "122801.875000",
          "122804.375000",
          "122806.875000",
          "122809.375000",
          "122811.875000",
          "122814.875000",
          "122817.375000",
          "122819.875000",
          "122822.375000",
          "122824.875000",
          "122827.375000",
          "122830.375000",
          "122832.875000",
          "122835.375000",
          "122837.875000",
          "122840.375000",
          "122843.375000",
          "122845.875000",
          "122848.375000",
          "122850.875000",
          "122853.375000",
          "122856.375000",
          "122858.875000",
          "122901.375000",
          "122903.875000",
          "122906.375000",
          "122909.375000",
          "122911.875000",
          "122914.375000",
          "122916.875000",
          "122919.875000",
          "122922.375000",
          "122924.875000",
          "122927.375000",
          "122929.875000",
          "122932.875000",
          "122935.375000",
          "122937.875000",
          "122940.375000",
          "122942.875000",
          "122945.875000",
          "122948.375000",
          "122950.875000",
          "122953.375000",
          "122955.875000",
          "122958.875000",
          "123001.375000",
          "123003.875000",
          "123006.375000",
          "123008.875000",
          "123011.375000",
          "123014.375000",
          "123016.890000",
          "123019.375000",
          "123021.875000",
          "123024.875000",
          "123027.375000",
          "123029.875000",
          "123032.375000",
          "123034.875000",
          "123037.890000",
          "123040.375000",
          "123042.875000",
          "123045.375000",
          "123047.875000",
          "123050.875000",
          "123053.375000",
          "123055.875000",
          "123058.375000",
          "123100.875000",
          "123103.375000",
          "123106.375000",
          "123108.875000",
          "123111.375000",
          "123113.875000",
          "123116.375000",
          "123119.375000",
          "123121.875000",
          "123124.375000",
          "123126.875000",
          "123129.375000",
          "123132.375000",
          "123134.875000",
          "123137.375000",
          "123139.875000",
          "123142.875000",
          "123145.375000",
          "123147.875000",
          "123150.375000",
          "123152.875000",
          "123155.375000",
          "123158.375000",
          "123200.875000",
          "123203.375000",
          "123205.875000",
          "123208.875000",
          "123211.375000",
          "123213.875000",
          "123216.375000",
          "123218.875000",
          "123221.875000",
          "123224.375000",
          "123226.875000",
          "123229.375000",
          "123231.875000",
          "123234.875000",
          "123237.375000",
          "123239.875000",
          "123242.375000",
          "123244.875000",
          "123247.875000",
          "123250.375000",
          "123257.562000"
        ],
        "InstanceNumber": [
          1,
          2,
          3,
          4,
          5,
          6,
          7,
          8,
          9,
          10,
          11,
          12,
          13,
          14,
          15,
          16,
          17,
          18,
          19,
          20,
          21,
          22,
          23,
          24,
          25,
          26,
          27,
          28,
          29,
          30,
          31,
          32,
          33,
          34,
          35,
          36,
          37,
          38,
          39,
          40,
          41,
          42,
          43,
          44,
          45,
          46,
          47,
          48,
          49,
          50,
          51,
          52,
          53,
          54,
          55,
          56,
          57,
          58,
          59,
          60,
          61,
          62,
          63,
          64,
          65,
          66,
          67,
          68,
          69,
          70,
          71,
          72,
          73,
          74,
          75,
          76,
          77,
          78,
          79,
          80,
          81,
          82,
          83,
          84,
          85,
          86,
          87,
          88,
          89,
          90,
          91,
          92,
          93,
          94,
          95,
          96,
          97,
          98,
          99,
          100,
          101,
          102,
          103,
          104,
          105,
          106,
          107,
          108,
          109,
          110,
          111,
          112,
          113,
          114,
          115,
          116,
          117,
          118,
          119,
          120,
          121,
          122,
          123,
          124,
          125,
          126,
          127,
          128,
          129,
          130,
          131,
          132,
          133,
          134,
          135,
          136,
          137,
          138,
          139,
          140,
          141,
          142,
          143,
          144,
          145,
          146,
          147,
          148,
          149,
          150
        ],
        "WindowCenter": [
          968.0,
          967.0,
          967.0,
          966.0,
          967.0,
          967.0,
          964.0,
          962.0,
          962.0,
          962.0,
          960.0,
          961.0,
          963.0,
          963.0,
          963.0,
          965.0,
          966.0,
          967.0,
          964.0,
          961.0,
          963.0,
          963.0,
          962.0,
          965.0,
          965.0,
          963.0,
          963.0,
          963.0,
          963.0,
          962.0,
          961.0,
          962.0,
          963.0,
          964.0,
          962.0,
          962.0,
          965.0,
          964.0,
          964.0,
          966.0,
          967.0,
          965.0,
          963.0,
          963.0,
          964.0,
          962.0,
          963.0,
          964.0,
          965.0,
          962.0,
          962.0,
          963.0,
          963.0,
          964.0,
          964.0,
          963.0,
          964.0,
          963.0,
          963.0,
          964.0,
          965.0,
          966.0,
          964.0,
          963.0,
          963.0,
          964.0,
          963.0,
          962.0,
          964.0,
          963.0,
          962.0,
          965.0,
          964.0,
          964.0,
          965.0,
          965.0,
          964.0,
          964.0,
          964.0,
          965.0,
          964.0,
          962.0,
          962.0,
          961.0,
          961.0,
          964.0,
          966.0,
          963.0,
          962.0,
          964.0,
          965.0,
          965.0,
          966.0,
          964.0,
          963.0,
          963.0,
          964.0,
          963.0,
          963.0,
          966.0,
          967.0,
          965.0,
          962.0,
          962.0,
          965.0,
          966.0,
          965.0,
          964.0,
          965.0,
          965.0,
          963.0,
          962.0,
          963.0,
          965.0,
          963.0,
          962.0,
          962.0,
          964.0,
          963.0,
          962.0,
          963.0,
          966.0,
          964.0,
          965.0,
          963.0,
          963.0,
          964.0,
          963.0,
          964.0,
          965.0,
          966.0,
          964.0,
          962.0,
          962.0,
          960.0,
          962.0,
          965.0,
          966.0,
          963.0,
          964.0,
          964.0,
          966.0,
          965.0,
          964.0,
          965.0,
          964.0,
          963.0,
          964.0,
          963.0,
          964.0
        ],
        "WindowWidth": [
          2237.0,
          2235.0,
          2237.0,
          2233.0,
          2237.0,
          2234.0,
          2225.0,
          2219.0,
          2219.0,
          2217.0,
          2213.0,
          2217.0,
          2221.0,
          2221.0,
          2221.0,
          2227.0,
          2233.0,
          2233.0,
          2222.0,
          2216.0,
          2222.0,
          2219.0,
          2218.0,
          2229.0,
          2227.0,
          2220.0,
          2222.0,
          2222.0,
          2222.0,
          2218.0,
          2215.0,
          2218.0,
          2223.0,
          2224.0,
          2219.0,
          2220.0,
          2229.0,
          2225.0,
          2223.0,
          2231.0,
          2233.0,
          2227.0,
          2222.0,
          2222.0,
          2223.0,
          2220.0,
          2220.0,
          2225.0,
          2226.0,
          2218.0,
          2216.0,
          2220.0,
          2222.0,
          2224.0,
          2223.0,
          2221.0,
          2225.0,
          2221.0,
          2221.0,
          2227.0,
          2231.0,
          2232.0,
          2225.0,
          2220.0,
          2222.0,
          2224.0,
          2220.0,
          2217.0,
          2224.0,
          2221.0,
          2219.0,
          2228.0,
          2225.0,
          2225.0,
          2230.0,
          2226.0,
          2223.0,
          2223.0,
          2226.0,
          2229.0,
          2225.0,
          2218.0,
          2218.0,
          2215.0,
          2214.0,
          2224.0,
          2230.0,
          2221.0,
          2218.0,
          2225.0,
          2226.0,
          2227.0,
          2231.0,
          2224.0,
          2221.0,
          2222.0,
          2224.0,
          2221.0,
          2222.0,
          2230.0,
          2235.0,
          2225.0,
          2216.0,
          2219.0,
          2228.0,
          2232.0,
          2225.0,
          2224.0,
          2227.0,
          2228.0,
          2220.0,
          2220.0,
          2223.0,
          2228.0,
          2220.0,
          2218.0,
          2220.0,
          2224.0,
          2220.0,
          2218.0,
          2222.0,
          2230.0,
          2225.0,
          2227.0,
          2222.0,
          2223.0,
          2222.0,
          2222.0,
          2225.0,
          2229.0,
          2230.0,
          2222.0,
          2219.0,
          2217.0,
          2213.0,
          2218.0,
          2229.0,
          2229.0,
          2221.0,
          2222.0,
          2224.0,
          2231.0,
          2227.0,
          2225.0,
          2227.0,
          2225.0,
          2221.0,
          2224.0,
          2222.0,
          2225.0
        ]
      },
      "slices": {}
    }
  },
  "dummy_trs": 0,
  "dvars_nstd": 77.4053952006711,
  "dvars_std": 1.089861862550336,
  "dvars_vstd": 1.0276370546308726,
  "efc": 0.5824130666691194,
  "fber": 220.2091522216797,
  "fd_mean": 0.08429784271952177,
  "fd_num": 4,
  "fd_perc": 2.6666666666666665,
  "fwhm_avg": 3.1013292521744256,
  "fwhm_x": 3.0356249150365224,
  "fwhm_y": 2.902190551972944,
  "fwhm_z": 3.3661722895138104,
  "gcor": 0.00385085,
  "gsr_x": 0.02586299739778042,
  "gsr_y": 0.046802837401628494,
  "provenance": {
    "md5sum": "0a88048d8f71205868f3a5496cb28836",
    "settings": {
      "fd_thres": 0.2,
      "testing": false
    },
    "software": "mriqc",
    "version": "23.0.1",
    "webapi_port": null,
    "webapi_url": "https://mriqc.nimh.nih.gov/api/v1"
  },
  "size_t": 150,
  "size_x": 188,
  "size_y": 188,
  "size_z": 46,
  "snr": 1.865329063095103,
  "spacing_tr": 2.5999999046325684,
  "spacing_x": 1.0957447290420532,
  "spacing_y": 1.0957447290420532,
  "spacing_z": 1.1000001430511475,
  "summary_bg_k": 46.20401118329211,
  "summary_bg_mad": 43.13384748135543,
  "summary_bg_mean": 122.03340148925781,
  "summary_bg_median": 67.94667053222656,
  "summary_bg_n": 1016674.0,
  "summary_bg_p05": 33.046669006347656,
  "summary_bg_p95": 371.6600036621094,
