{
  "aor": 0.0006626666666666667,
  "aqi": 0.015209898,
  "bids_meta": {
    "AcquisitionMatrixPE": 188,
    "AcquisitionNumber": 1,
    "AcquisitionTime": "16:14:24.190000",
    "BandwidthPerPixelPhaseEncode": 19.46,
    "BaseResolution": 188,
    "CogAtlasID": "TODO",
    "ConversionSoftware": "dcm2niix",
    "ConversionSoftwareVersion": "v1.0.20180606 GCC4.8.5",
    "DelayTime": 1.2,
    "DerivedVendorReportedEchoSpacing": 0.000820013,
    "DeviceSerialNumber": "18930",
    "DwellTime": 1.9e-06,
    "EchoTime": 0.02,
    "EffectiveEchoSpacing": 0.000273338,
    "FlipAngle": 80,
    "ImageComments": "Unaliased_MB2_PE2",
    "ImageOrientationPatientDICOM": [
      0.999735,
      -0.0174383,
      -0.0150539,
      -0.0126913,
      0.128453,
      -0.991634
    ],
    "ImageType": [
      "ORIGINAL",
      "PRIMARY",
      "M",
      "MB",
      "ND",
      "MOSAIC"
    ],
    "InPlanePhaseEncodingDirectionDICOM": "COL",
    "InstitutionAddress": "Oxfordlaan_55_Maastricht_753AAF_Limburg_NL_6229_EV",
    "InstitutionName": "Scannexus",
    "InstitutionalDepartmentName": "MRI_7T",
    "MRAcquisitionType": "2D",
    "MagneticFieldStrength": 6.98,
    "Manufacturer": "Siemens",
    "ManufacturersModelName": "Investigational_Device_7T",
    "Modality": "MR",
    "MultibandAccelerationFactor": 2,
    "ParallelReductionFactorInPlane": 3,
    "PartialFourier": 0.75,
    "PatientPosition": "HFS",
    "PercentPhaseFOV": 100,
    "PhaseEncodingDirection": "j",
    "PhaseEncodingSteps": 141,
    "PhaseResolution": 1,
    "PixelBandwidth": 1400,
    "ProcedureStepDescription": "FeDem_Faruk",
    "ProtocolName": "cmrr_mbep2d_bold_AP_run5",
    "PulseSequenceDetails": "%CustomerSeq%_cmrr_mbep2d_bold",
    "ReceiveCoilName": "32Ch_Head_7T",
    "ReconMatrixPE": 188,
    "RepetitionTime": 2.6,
    "SAR": 0.106963,
    "ScanOptions": "PFP_FS",
    "ScanningSequence": "EP",
    "SequenceName": "epfid2d1_188",
    "SequenceVariant": "SK_SS",
    "SeriesDescription": "cmrr_mbep2d_bold_AP_run5",
    "SeriesNumber": 16,
    "ShimSetting": [
      38,
      -81,
      367,
      509,
      -111,
      388,
      -130,
      141
    ],
    "SliceThickness": 1.1,
    "SliceTiming": [
      0,
      0.7325,
      0.06,
      0.7925,
      0.1225,
      0.855,
      0.1825,
      0.915,
      0.2425,
      0.9775,
      0.305,
      1.0375,
      0.365,
      1.1,
      0.4275,
      1.16,
      0.4875,
      1.2225,
      0.55,
      1.2825,
      0.61,
      1.3425,
      0.6725,
      0,
      0.7325,
      0.06,
      0.7925,
      0.1225,
      0.855,
      0.1825,
      0.915,
      0.2425,
      0.9775,
      0.305,
      1.0375,
      0.365,
      1.1,
      0.4275,
      1.16,
      0.4875,
      1.2225,
      0.55,
      1.2825,
      0.61,
      1.3425,
      0.6725
    ],
    "SoftwareVersions": "syngo_MR_B17",
    "SpacingBetweenSlices": 1.1,
    "StationName": "MRC18930",
    "TaskName": "auditory",
    "TotalReadoutTime": 0.0511141,
    "TxRefAmp": 240,
    "dataset": "ds001942",
    "dcmmeta_affine": [
      [
        -1.0954539775848389,
        -0.013906460255384445,
        -0.02114875242114067,
        110.03825378417969
      ],
      [
        0.019107934087514877,
        0.14075127243995667,
        -1.0907185077667236,
        31.862977981567383
      ],
      [
        -0.016495225951075554,
        1.0865782499313354,
        0.14101693034172058,
        -120.29054260253906
      ],
      [
        0.0,
        0.0,
        0.0,
        1.0
      ]
    ],
    "dcmmeta_reorient_transform": [
      [
        0.0,
        -1.0,
        0.0,
        187.0
      ],
      [
        1.0,
        0.0,
        0.0,
        0.0
      ],
      [
        0.0,
        0.0,
        1.0,
        0.0
      ],
      [
        0.0,
        0.0,
        0.0,
        1.0
      ]
    ],
    "dcmmeta_shape": [
      188,
      188,
      46,
      150
    ],
    "dcmmeta_slice_dim": 2,
    "dcmmeta_version": 0.6,
    "global": {
      "const": {
        "AcquisitionMatrix": [
          188,
          0,
          0,
          188
        ],
        "AngioFlag": "N",
        "BitsAllocated": 16,
        "BitsStored": 12,
        "Columns": 1316,
        "EchoNumbers": 1,
        "EchoTime": 20.0,
        "EchoTrainLength": 1,
        "FlipAngle": 80.0,
        "HighBit": 11,
        "ImageOrientationPatient": [
          0.99973460762243,
          -0.0174383082265,
          -0.0150538941213,
          -0.0126913317262,
          0.1284526139087,
          -0.991634436715
        ],
        "ImagePositionPatient": [
          -717.4305167741,
          -126.79031083699,
          705.03299846262
        ],
        "ImageType": [
          "ORIGINAL",
          "PRIMARY",
          "M",
          "MB",
          "ND",
          "MOSAIC"
        ],
        "ImagedNucleus": "1H",
        "ImagingFrequency": 297.205623,
        "InPlanePhaseEncodingDirection": "COL",
        "LargestImagePixelValue": 4095,
        "MRAcquisitionType": "2D",
        "MagneticFieldStrength": 6.98,
        "Manufacturer": "SIEMENS",
        "ManufacturerModelName": "Investigational_Device_7T",
        "Modality": "MR",
        "NumberOfAverages": 1.0,
        "NumberOfPhaseEncodingSteps": 141,
        "PercentPhaseFieldOfView": 100.0,
        "PercentSampling": 100.0,
        "PerformedProcedureStepStartTime": "144037.625000",
        "PhotometricInterpretation": "MONOCHROME2",
        "PixelBandwidth": 1400.0,
        "PixelRepresentation": 0,
        "PixelSpacing": [
          1.0957447290421,
          1.0957447290421
        ],
        "ProtocolName": "cmrr_mbep2d_bold_AP_run5",
        "RepetitionTime": 2600.0,
        "Rows": 1316,
        "SAR": 0.10696253766972,
        "SamplesPerPixel": 1,
        "ScanOptions": [
          "PFP",
          "FS"
        ],
        "ScanningSequence": "EP",
        "SequenceName": "epfid2d1_188",
        "SequenceVariant": [
          "SK",
          "SS"
        ],
        "SeriesDescription": "cmrr_mbep2d_bold_AP_run5",
        "SeriesNumber": 16,
        "SeriesTime": "161433.046000",
        "SliceLocation": -49.13065131481,
        "SliceThickness": 1.1000000238419,
        "SmallestImagePixelValue": 0,
        "SoftwareVersions": "syngo MR B17",
        "SpacingBetweenSlices": 1.0999999671667,
        "SpecificCharacterSet": "ISO_IR 100",
        "StudyID": "1",
        "StudyTime": "144037.484000",
        "TransmitCoilName": "32Ch_Head_7T",
        "VariableFlipAngleFlag": "N",
        "WindowCenterWidthExplanation": "Algo1",
        "dBdt": 0.0
      },
      "slices": {}
    },
    "modality": "bold",
    "run_id": 5,
    "session_id": "SES02",
    "subject_id": "S08",
    "task_id": "auditory",
    "time": {
      "samples": {
        "AcquisitionNumber": [
          1,
          2,
          3,
          4,
          5,
          6,
          7,
          8,
          9,
          10,
          11,
          12,
          13,
          14,
          15,
          16,
          17,
          18,
          19,
          20,
          21,
          22,
          23,
          24,
          25,
          26,
          27,
          28,
          29,
          30,
          31,
          32,
          33,
          34,
          35,
          36,
          37,
          38,
          39,
          40,
          41,
          42,
          43,
          44,
          45,
          46,
          47,
          48,
          49,
          50,
          51,
          52,
          53,
          54,
          55,
          56,
          57,
          58,
          59,
          60,
          61,
          62,
          63,
          64,
          65,
          66,
          67,
          68,
          69,
          70,
          71,
          72,
          73,
          74,
          75,
          76,
          77,
          78,
          79,
          80,
          81,
          82,
          83,
          84,
          85,
          86,
          87,
          88,
          89,
          90,
          91,
          92,
          93,
          94,
          95,
          96,
          97,
          98,
          99,
          100,
          101,
          102,
          103,
          104,
          105,
          106,
          107,
          108,
          109,
          110,
          111,
          112,
          113,
          114,
          115,
          116,
          117,
          118,
          119,
          120,
          121,
          122,
          123,
          124,
          125,
          126,
          127,
          128,
          129,
          130,
          131,
          132,
          133,
          134,
          135,
          136,
          137,
          138,
          139,
          140,
          141,
          142,
          143,
          144,
          145,
          146,
          147,
          148,
          149,
          150
        ],
        "AcquisitionTime": [
          "161424.190000",
          "161426.800000",
          "161429.410000",
          "161432.020000",
          "161434.630000",
          "161437.242500",
          "161439.852500",
          "161442.462500",
          "161445.072500",
          "161447.682500",
          "161450.292500",
          "161452.905000",
          "161455.515000",
          "161458.125000",
          "161500.735000",
          "161503.345000",
          "161505.957500",
          "161508.567500",
          "161511.177500",
          "161513.787500",
          "161516.397500",
          "161519.007500",
          "161521.620000",
          "161524.230000",
          "161526.840000",
          "161529.450000",
          "161532.060000",
          "161534.670000",
          "161537.282500",
          "161539.892500",
          "161542.502500",
          "161545.112500",
          "161547.722500",
          "161550.335000",
          "161552.945000",
          "161555.555000",
          "161558.165000",
          "161600.775000",
          "161603.385000",
          "161605.997500",
          "161608.607500",
          "161611.217500",
          "161613.827500",
          "161616.437500",
          "161619.047500",
          "161621.660000",
          "161624.270000",
          "161626.880000",
          "161629.490000",
          "161632.100000",
          "161634.712500",
          "161637.322500",
          "161639.932500",
          "161642.542500",
          "161645.152500",
          "161647.762500",
          "161650.375000",
          "161652.985000",
          "161655.595000",
          "161658.205000",
          "161700.815000",
          "161703.425000",
          "161706.037500",
          "161708.647500",
          "161711.257500",
          "161713.867500",
          "161716.477500",
          "161719.090000",
          "161721.700000",
          "161724.310000",
          "161726.920000",
          "161729.530000",
          "161732.140000",
          "161734.752500",
          "161737.362500",
          "161739.972500",
          "161742.582500",
          "161745.192500",
          "161747.802500",
          "161750.415000",
          "161753.025000",
          "161755.635000",
          "161758.245000",
          "161800.855000",
          "161803.467500",
          "161806.077500",
          "161808.687500",
          "161811.297500",
          "161813.907500",
          "161816.517500",
          "161819.130000",
          "161821.740000",
          "161824.350000",
          "161826.960000",
          "161829.570000",
          "161832.180000",
          "161834.792500",
          "161837.402500",
          "161840.012500",
          "161842.622500",
          "161845.232500",
          "161847.845000",
          "161850.455000",
          "161853.065000",
          "161855.675000",
          "161858.285000",
          "161900.895000",
          "161903.507500",
          "161906.117500",
          "161908.727500",
          "161911.337500",
          "161913.947500",
          "161916.560000",
          "161919.170000",
          "161921.780000",
          "161924.390000",
          "161927.000000",
          "161929.610000",
          "161932.222500",
          "161934.832500",
          "161937.442500",
          "161940.052500",
          "161942.662500",
          "161945.272500",
          "161947.885000",
          "161950.495000",
          "161953.105000",
          "161955.715000",
          "161958.325000",
          "162000.937500",
          "162003.547500",
          "162006.157500",
          "162008.767500",
          "162011.377500",
          "162013.987500",
          "162016.600000",
          "162019.210000",
          "162021.820000",
          "162024.430000",
          "162027.040000",
          "162029.650000",
          "162032.262500",
          "162034.872500",
          "162037.482500",
          "162040.092500",
          "162042.702500",
          "162045.315000",
          "162047.925000",
          "162050.535000",
          "162053.145000"
        ],
        "ContentTime": [
          "161433.046000",
          "161433.531000",
          "161434.031000",
          "161436.531000",
          "161439.031000",
          "161441.531000",
          "161444.531000",
          "161447.031000",
          "161449.531000",
          "161452.031000",
          "161454.531000",
          "161457.531000",
          "161500.031000",
          "161502.531000",
          "161505.031000",
          "161507.531000",
          "161510.531000",
          "161513.031000",
          "161515.531000",
          "161518.031000",
          "161520.531000",
          "161523.531000",
          "161526.031000",
          "161528.531000",
          "161531.031000",
          "161534.031000",
          "161536.531000",
          "161539.031000",
          "161541.531000",
          "161544.031000",
          "161546.531000",
          "161549.531000",
          "161552.031000",
          "161554.531000",
          "161557.031000",
          "161559.531000",
          "161602.531000",
          "161605.031000",
          "161607.531000",
          "161610.031000",
          "161612.531000",
          "161615.531000",
          "161618.031000",
          "161620.531000",
          "161623.031000",
          "161625.531000",
          "161628.531000",
          "161631.031000",
          "161633.531000",
          "161636.031000",
          "161639.031000",
          "161641.531000",
          "161644.031000",
          "161646.531000",
          "161649.031000",
          "161652.031000",
          "161654.531000",
          "161657.031000",
          "161659.531000",
          "161702.031000",
          "161704.531000",
          "161707.531000",
          "161710.031000",
          "161712.531000",
          "161715.031000",
          "161717.531000",
          "161720.531000",
          "161723.031000",
          "161725.531000",
          "161728.031000",
          "161730.531000",
          "161733.531000",
          "161736.031000",
          "161738.531000",
          "161741.031000",
          "161743.531000",
          "161746.531000",
          "161749.031000",
          "161751.531000",
          "161754.031000",
          "161756.531000",
          "161759.531000",
          "161802.031000",
          "161804.531000",
          "161807.031000",
          "161809.531000",
          "161812.531000",
          "161815.031000",
          "161817.531000",
          "161820.031000",
          "161822.531000",
          "161825.531000",
          "161828.031000",
          "161830.531000",
          "161833.031000",
          "161835.531000",
          "161838.531000",
          "161841.031000",
          "161843.531000",
          "161846.031000",
          "161849.031000",
          "161851.531000",
          "161854.031000",
          "161856.531000",
          "161859.031000",
          "161901.531000",
          "161904.531000",
          "161907.031000",
          "161909.531000",
          "161912.031000",
          "161914.531000",
          "161917.531000",
          "161920.031000",
          "161922.531000",
          "161925.031000",
          "161927.531000",
          "161930.531000",
          "161933.031000",
          "161935.531000",
          "161938.031000",
          "161940.531000",
          "161943.531000",
          "161946.031000",
          "161948.531000",
          "161951.031000",
          "161953.531000",
          "161956.531000",
          "161959.031000",
          "162001.531000",
          "162004.031000",
          "162006.531000",
          "162009.531000",
          "162012.031000",
          "162014.531000",
          "162017.031000",
          "162019.531000",
          "162022.531000",
          "162025.031000",
          "162027.531000",
          "162030.031000",
          "162033.031000",
          "162035.531000",
          "162038.031000",
          "162040.531000",
          "162043.031000",
          "162046.031000",
          "162048.531000",
          "162051.031000",
          "162053.531000",
          "162100.906000"
        ],
        "InstanceCreationTime": [
          "161433.046000",
          "161433.531000",
          "161434.031000",
          "161436.531000",
          "161439.031000",
          "161441.531000",
          "161444.531000",
          "161447.031000",
          "161449.531000",
          "161452.031000",
          "161454.531000",
          "161457.531000",
          "161500.031000",
          "161502.531000",
          "161505.031000",
          "161507.531000",
          "161510.531000",
          "161513.031000",
          "161515.531000",
          "161518.031000",
          "161520.531000",
          "161523.531000",
          "161526.031000",
          "161528.531000",
          "161531.031000",
          "161534.031000",
          "161536.531000",
          "161539.031000",
          "161541.531000",
          "161544.031000",
          "161546.531000",
          "161549.531000",
          "161552.031000",
          "161554.531000",
          "161557.031000",
          "161559.531000",
          "161602.531000",
          "161605.031000",
          "161607.531000",
          "161610.031000",
          "161612.531000",
          "161615.531000",
          "161618.031000",
          "161620.531000",
          "161623.031000",
          "161625.531000",
          "161628.531000",
          "161631.031000",
          "161633.531000",
          "161636.031000",
          "161639.031000",
          "161641.531000",
          "161644.031000",
          "161646.531000",
          "161649.031000",
          "161652.031000",
          "161654.531000",
          "161657.031000",
          "161659.531000",
          "161702.031000",
          "161704.531000",
          "161707.531000",
          "161710.031000",
          "161712.531000",
          "161715.031000",
          "161717.531000",
          "161720.531000",
          "161723.031000",
          "161725.531000",
          "161728.031000",
          "161730.531000",
          "161733.531000",
          "161736.031000",
          "161738.531000",
          "161741.031000",
          "161743.531000",
          "161746.531000",
          "161749.031000",
          "161751.531000",
          "161754.031000",
          "161756.531000",
          "161759.531000",
          "161802.031000",
          "161804.531000",
          "161807.031000",
          "161809.531000",
          "161812.531000",
          "161815.031000",
          "161817.531000",
          "161820.031000",
          "161822.531000",
          "161825.531000",
          "161828.031000",
          "161830.531000",
          "161833.031000",
          "161835.531000",
          "161838.531000",
          "161841.031000",
          "161843.531000",
          "161846.031000",
          "161849.031000",
          "161851.531000",
          "161854.031000",
          "161856.531000",
          "161859.031000",
          "161901.531000",
          "161904.531000",
          "161907.031000",
          "161909.531000",
          "161912.031000",
          "161914.531000",
          "161917.531000",
          "161920.031000",
          "161922.531000",
          "161925.031000",
          "161927.531000",
          "161930.531000",
          "161933.031000",
          "161935.531000",
          "161938.031000",
          "161940.531000",
          "161943.531000",
          "161946.031000",
          "161948.531000",
          "161951.031000",
          "161953.531000",
          "161956.531000",
          "161959.031000",
          "162001.531000",
          "162004.031000",
          "162006.531000",
          "162009.531000",
          "162012.031000",
          "162014.531000",
          "162017.031000",
          "162019.531000",
          "162022.531000",
          "162025.031000",
          "162027.531000",
          "162030.031000",
          "162033.031000",
          "162035.531000",
          "162038.031000",
          "162040.531000",
          "162043.031000",
          "162046.031000",
          "162048.531000",
          "162051.031000",
          "162053.531000",
          "162100.906000"
        ],
        "InstanceNumber": [
          1,
          2,
          3,
          4,
          5,
          6,
          7,
          8,
          9,
          10,
          11,
          12,
          13,
          14,
          15,
          16,
          17,
          18,
          19,
          20,
          21,
          22,
          23,
          24,
          25,
          26,
          27,
          28,
          29,
          30,
          31,
          32,
          33,
          34,
          35,
          36,
          37,
          38,
          39,
          40,
          41,
          42,
          43,
          44,
          45,
          46,
          47,
          48,
          49,
          50,
          51,
          52,
          53,
          54,
          55,
          56,
          57,
          58,
          59,
          60,
          61,
          62,
          63,
          64,
          65,
          66,
          67,
          68,
          69,
          70,
          71,
          72,
          73,
          74,
          75,
          76,
          77,
          78,
          79,
          80,
          81,
          82,
          83,
          84,
          85,
          86,
          87,
          88,
          89,
          90,
          91,
          92,
          93,
          94,
          95,
          96,
          97,
          98,
          99,
          100,
          101,
          102,
          103,
          104,
          105,
          106,
          107,
          108,
          109,
          110,
          111,
          112,
          113,
          114,
          115,
          116,
          117,
          118,
          119,
          120,
          121,
          122,
          123,
          124,
          125,
          126,
          127,
          128,
          129,
          130,
          131,
          132,
          133,
          134,
          135,
          136,
          137,
          138,
          139,
          140,
          141,
          142,
          143,
          144,
          145,
          146,
          147,
          148,
          149,
          150
        ],
        "WindowCenter": [
          816.0,
          816.0,
          816.0,
          816.0,
          816.0,
          816.0,
          816.0,
          816.0,
          816.0,
          815.0,
          815.0,
          817.0,
          817.0,
          816.0,
          815.0,
          814.0,
          814.0,
          814.0,
          813.0,
          815.0,
          816.0,
          815.0,
          814.0,
          814.0,
          815.0,
          815.0,
          816.0,
          817.0,
          817.0,
          816.0,
          815.0,
          816.0,
          816.0,
          814.0,
          813.0,
          814.0,
          817.0,
          816.0,
          815.0,
          814.0,
          814.0,
          814.0,
          815.0,
          816.0,
          816.0,
          818.0,
          816.0,
          814.0,
          813.0,
          816.0,
          816.0,
          815.0,
          814.0,
          814.0,
          814.0,
          815.0,
          815.0,
          815.0,
          817.0,
          816.0,
          816.0,
          817.0,
          819.0,
          820.0,
          818.0,
          815.0,
          815.0,
          816.0,
          815.0,
          813.0,
          814.0,
          815.0,
          816.0,
          815.0,
          816.0,
          817.0,
          817.0,
          815.0,
          815.0,
          816.0,
          818.0,
          817.0,
          816.0,
          814.0,
          814.0,
          815.0,
          817.0,
          817.0,
          815.0,
          815.0,
          815.0,
          816.0,
          816.0,
          815.0,
          817.0,
          817.0,
          816.0,
          814.0,
          813.0,
          814.0,
          814.0,
          816.0,
          818.0,
          819.0,
          816.0,
          815.0,
          815.0,
          815.0,
          817.0,
          819.0,
          817.0,
          815.0,
          814.0,
          816.0,
          816.0,
          817.0,
          818.0,
          817.0,
          816.0,
          814.0,
          814.0,
          815.0,
          817.0,
          815.0,
          814.0,
          815.0,
          816.0,
          817.0,
          818.0,
          817.0,
          816.0,
          814.0,
          813.0,
          813.0,
          815.0,
          816.0,
          816.0,
          815.0,
          817.0,
          817.0,
          815.0,
          813.0,
          814.0,
          815.0,
          815.0,
          814.0,
          814.0,
          817.0,
          819.0,
          816.0
        ],
        "WindowWidth": [
          1884.0,
          1885.0,
          1887.0,
          1887.0,
          1886.0,
          1886.0,
          1886.0,
          1888.0,
          1886.0,
          1882.0,
          1883.0,
          1890.0,
          1889.0,
          1888.0,
          1884.0,
          1881.0,
          1881.0,
          1879.0,
          1877.0,
          1885.0,
          1886.0,
          1884.0,
          1879.0,
          1878.0,
          1881.0,
          1885.0,
          1888.0,
          1893.0,
          1890.0,
          1884.0,
          1883.0,
          1888.0,
          1885.0,
          1878.0,
          1876.0,
          1880.0,
          1889.0,
          1886.0,
          1883.0,
          1880.0,
          1877.0,
          1878.0,
          1880.0,
          1885.0,
          1889.0,
          1893.0,
          1884.0,
          1877.0,
          1876.0,
          1887.0,
          1887.0,
          1882.0,
          1878.0,
          1876.0,
          1876.0,
          1882.0,
          1883.0,
          1884.0,
          1888.0,
          1887.0,
          1888.0,
          1889.0,
          1897.0,
          1900.0,
          1891.0,
          1882.0,
          1880.0,
          1886.0,
          1880.0,
          1875.0,
          1876.0,
          1884.0,
          1885.0,
          1882.0,
          1884.0,
          1892.0,
          1889.0,
          1883.0,
          1883.0,
          1886.0,
          1892.0,
          1890.0,
          1883.0,
          1876.0,
          1877.0,
          1884.0,
          1890.0,
          1888.0,
          1881.0,
          1879.0,
          1883.0,
          1884.0,
          1884.0,
          1882.0,
          1891.0,
          1890.0,
          1884.0,
          1879.0,
          1875.0,
          1876.0,
          1877.0,
          1887.0,
          1894.0,
          1895.0,
          1884.0,
          1880.0,
          1879.0,
          1882.0,
          1888.0,
          1896.0,
          1886.0,
          1879.0,
          1879.0,
          1884.0,
          1885.0,
          1889.0,
          1892.0,
          1889.0,
          1884.0,
          1878.0,
          1875.0,
          1880.0,
          1888.0,
          1879.0,
          1876.0,
          1879.0,
          1884.0,
          1888.0,
          1892.0,
          1888.0,
          1884.0,
          1877.0,
          1873.0,
          1873.0,
          1880.0,
          1884.0,
          1885.0,
          1882.0,
          1888.0,
          1888.0,
          1881.0,
          1872.0,
          1877.0,
          1881.0,
          1879.0,
          1878.0,
          1878.0,
          1890.0,
          1896.0,
          1883.0
        ]
      },
      "slices": {}
    }
  },
  "dummy_trs": 0,
  "dvars_nstd": 78.24910039731544,
  "dvars_std": 1.0921687403355704,
  "dvars_vstd": 1.0204981803355706,
  "efc": 0.532355214527801,
  "fber": 443.9991760253906,
  "fd_mean": 0.10556559759935105,
  "fd_num": 10,
  "fd_perc": 6.666666666666667,
  "fwhm_avg": 2.8595414138706476,
  "fwhm_x": 2.818484924586367,
  "fwhm_y": 2.863112107089677,
  "fwhm_z": 2.897027209935899,
  "gcor": 0.00514708,
  "gsr_x": -0.005982028320431709,
  "gsr_y": 0.04963771253824234,
  "provenance": {
    "md5sum": "118ab02f9f21f62d033d2f3f6949d85f",
    "settings": {
      "fd_thres": 0.2,
      "testing": false
    },
    "software": "mriqc",
    "version": "22.0.0rc1",
    "webapi_port": null,
    "webapi_url": "https://mriqc.nimh.nih.gov/api/v1"
  },
  "size_t": 150,
  "size_x": 188,
  "size_y": 188,
  "size_z": 46,
  "snr": 2.4163860643878876,
  "spacing_tr": 2.5999999046325684,
  "spacing_x": 1.0957447290420532,
  "spacing_y": 1.0957447290420532,
  "spacing_z": 1.100000023841858,
  "summary_bg_k": 72.1844173182665,
  "summary_bg_mad": 19.44185905263872,
  "summary_bg_mean": 77.1407470703125,
  "summary_bg_median": 44.16666793823242,
  "summary_bg_n": 1133605.0,
  "summary_bg_p05": 29.733333587646484,
