{
  "aor": 0.0006980666666666666,
  "aqi": 0.01409526666666667,
  "bids_meta": {
    "AcquisitionMatrixPE": 188,
    "AcquisitionNumber": 1,
    "AcquisitionTime": "16:39:50.272500",
    "BandwidthPerPixelPhaseEncode": 19.46,
    "BaseResolution": 188,
    "CogAtlasID": "TODO",
    "ConversionSoftware": "dcm2niix",
    "ConversionSoftwareVersion": "v1.0.20180606 GCC4.8.5",
    "DelayTime": 1.2,
    "DerivedVendorReportedEchoSpacing": 0.000820013,
    "DeviceSerialNumber": "18930",
    "DwellTime": 1.9e-06,
    "EchoTime": 0.02,
    "EffectiveEchoSpacing": 0.000273338,
    "FlipAngle": 80,
    "ImageComments": "Unaliased_MB2_PE2",
    "ImageOrientationPatientDICOM": [
      0.999735,
      -0.0174383,
      -0.0150539,
      -0.0126913,
      0.128453,
      -0.991634
    ],
    "ImageType": [
      "ORIGINAL",
      "PRIMARY",
      "M",
      "MB",
      "ND",
      "MOSAIC"
    ],
    "InPlanePhaseEncodingDirectionDICOM": "COL",
    "InstitutionAddress": "Oxfordlaan_55_Maastricht_753AAF_Limburg_NL_6229_EV",
    "InstitutionName": "Scannexus",
    "InstitutionalDepartmentName": "MRI_7T",
    "MRAcquisitionType": "2D",
    "MagneticFieldStrength": 6.98,
    "Manufacturer": "Siemens",
    "ManufacturersModelName": "Investigational_Device_7T",
    "Modality": "MR",
    "MultibandAccelerationFactor": 2,
    "ParallelReductionFactorInPlane": 3,
    "PartialFourier": 0.75,
    "PatientPosition": "HFS",
    "PercentPhaseFOV": 100,
    "PhaseEncodingDirection": "j",
    "PhaseEncodingSteps": 141,
    "PhaseResolution": 1,
    "PixelBandwidth": 1400,
    "ProcedureStepDescription": "FeDem_Faruk",
    "ProtocolName": "cmrr_mbep2d_bold_AP_run8",
    "PulseSequenceDetails": "%CustomerSeq%_cmrr_mbep2d_bold",
    "ReceiveCoilName": "32Ch_Head_7T",
    "ReconMatrixPE": 188,
    "RepetitionTime": 2.6,
    "SAR": 0.1068,
    "ScanOptions": "PFP_FS",
    "ScanningSequence": "EP",
    "SequenceName": "epfid2d1_188",
    "SequenceVariant": "SK_SS",
    "SeriesDescription": "cmrr_mbep2d_bold_AP_run8",
    "SeriesNumber": 21,
    "ShimSetting": [
      38,
      -81,
      367,
      509,
      -111,
      388,
      -130,
      141
    ],
    "SliceThickness": 1.1,
    "SliceTiming": [
      0,
      0.7325,
      0.06,
      0.795,
      0.1225,
      0.855,
      0.1825,
      0.9175,
      0.245,
      0.9775,
      0.305,
      1.0375,
      0.3675,
      1.1,
      0.4275,
      1.16,
      0.4875,
      1.2225,
      0.55,
      1.2825,
      0.61,
      1.345,
      0.6725,
      0,
      0.7325,
      0.06,
      0.795,
      0.1225,
      0.855,
      0.1825,
      0.9175,
      0.245,
      0.9775,
      0.305,
      1.0375,
      0.3675,
      1.1,
      0.4275,
      1.16,
      0.4875,
      1.2225,
      0.55,
      1.2825,
      0.61,
      1.345,
      0.6725
    ],
    "SoftwareVersions": "syngo_MR_B17",
    "SpacingBetweenSlices": 1.1,
    "StationName": "MRC18930",
    "TaskName": "auditory",
    "TotalReadoutTime": 0.0511141,
    "TxRefAmp": 240,
    "dataset": "ds001942",
    "dcmmeta_affine": [
      [
        -1.0954539775848389,
        -0.013906460255384445,
        -0.02114875242114067,
        110.03825378417969
      ],
      [
        0.019107934087514877,
        0.14075127243995667,
        -1.0907185077667236,
        31.862977981567383
      ],
      [
        -0.016495225951075554,
        1.0865782499313354,
        0.14101693034172058,
        -120.29054260253906
      ],
      [
        0.0,
        0.0,
        0.0,
        1.0
      ]
    ],
    "dcmmeta_reorient_transform": [
      [
        0.0,
        -1.0,
        0.0,
        187.0
      ],
      [
        1.0,
        0.0,
        0.0,
        0.0
      ],
      [
        0.0,
        0.0,
        1.0,
        0.0
      ],
      [
        0.0,
        0.0,
        0.0,
        1.0
      ]
    ],
    "dcmmeta_shape": [
      188,
      188,
      46,
      150
    ],
    "dcmmeta_slice_dim": 2,
    "dcmmeta_version": 0.6,
    "global": {
      "const": {
        "AcquisitionMatrix": [
          188,
          0,
          0,
          188
        ],
        "AngioFlag": "N",
        "BitsAllocated": 16,
        "BitsStored": 12,
        "Columns": 1316,
        "EchoNumbers": 1,
        "EchoTime": 20.0,
        "EchoTrainLength": 1,
        "FlipAngle": 80.0,
        "HighBit": 11,
        "ImageOrientationPatient": [
          0.99973460762243,
          -0.0174383082265,
          -0.0150538941213,
          -0.0126913317262,
          0.1284526139087,
          -0.991634436715
        ],
        "ImagePositionPatient": [
          -717.4305167741,
          -126.79031083699,
          705.03299846262
        ],
        "ImageType": [
          "ORIGINAL",
          "PRIMARY",
          "M",
          "MB",
          "ND",
          "MOSAIC"
        ],
        "ImagedNucleus": "1H",
        "ImagingFrequency": 297.205632,
        "InPlanePhaseEncodingDirection": "COL",
        "LargestImagePixelValue": 4095,
        "MRAcquisitionType": "2D",
        "MagneticFieldStrength": 6.98,
        "Manufacturer": "SIEMENS",
        "ManufacturerModelName": "Investigational_Device_7T",
        "Modality": "MR",
        "NumberOfAverages": 1.0,
        "NumberOfPhaseEncodingSteps": 141,
        "PercentPhaseFieldOfView": 100.0,
        "PercentSampling": 100.0,
        "PerformedProcedureStepStartTime": "144037.625000",
        "PhotometricInterpretation": "MONOCHROME2",
        "PixelBandwidth": 1400.0,
        "PixelRepresentation": 0,
        "PixelSpacing": [
          1.0957447290421,
          1.0957447290421
        ],
        "ProtocolName": "cmrr_mbep2d_bold_AP_run8",
        "RepetitionTime": 2600.0,
        "Rows": 1316,
        "SAR": 0.10680026881071,
        "SamplesPerPixel": 1,
        "ScanOptions": [
          "PFP",
          "FS"
        ],
        "ScanningSequence": "EP",
        "SequenceName": "epfid2d1_188",
        "SequenceVariant": [
          "SK",
          "SS"
        ],
        "SeriesDescription": "cmrr_mbep2d_bold_AP_run8",
        "SeriesNumber": 21,
        "SeriesTime": "164000.390000",
        "SliceLocation": -49.13065131481,
        "SliceThickness": 1.1000000238419,
        "SmallestImagePixelValue": 0,
        "SoftwareVersions": "syngo MR B17",
        "SpacingBetweenSlices": 1.0999999671667,
        "SpecificCharacterSet": "ISO_IR 100",
        "StudyID": "1",
        "StudyTime": "144037.484000",
        "TransmitCoilName": "32Ch_Head_7T",
        "VariableFlipAngleFlag": "N",
        "WindowCenterWidthExplanation": "Algo1",
        "dBdt": 0.0
      },
      "slices": {}
    },
    "modality": "bold",
    "run_id": 8,
    "session_id": "SES02",
    "subject_id": "S08",
    "task_id": "auditory",
    "time": {
      "samples": {
        "AcquisitionNumber": [
          1,
          2,
          3,
          4,
          5,
          6,
          7,
          8,
          9,
          10,
          11,
          12,
          13,
          14,
          15,
          16,
          17,
          18,
          19,
          20,
          21,
          22,
          23,
          24,
          25,
          26,
          27,
          28,
          29,
          30,
          31,
          32,
          33,
          34,
          35,
          36,
          37,
          38,
          39,
          40,
          41,
          42,
          43,
          44,
          45,
          46,
          47,
          48,
          49,
          50,
          51,
          52,
          53,
          54,
          55,
          56,
          57,
          58,
          59,
          60,
          61,
          62,
          63,
          64,
          65,
          66,
          67,
          68,
          69,
          70,
          71,
          72,
          73,
          74,
          75,
          76,
          77,
          78,
          79,
          80,
          81,
          82,
          83,
          84,
          85,
          86,
          87,
          88,
          89,
          90,
          91,
          92,
          93,
          94,
          95,
          96,
          97,
          98,
          99,
          100,
          101,
          102,
          103,
          104,
          105,
          106,
          107,
          108,
          109,
          110,
          111,
          112,
          113,
          114,
          115,
          116,
          117,
          118,
          119,
          120,
          121,
          122,
          123,
          124,
          125,
          126,
          127,
          128,
          129,
          130,
          131,
          132,
          133,
          134,
          135,
          136,
          137,
          138,
          139,
          140,
          141,
          142,
          143,
          144,
          145,
          146,
          147,
          148,
          149,
          150
        ],
        "AcquisitionTime": [
          "163950.272500",
          "163952.882500",
          "163955.492500",
          "163958.102500",
          "164000.715000",
          "164003.325000",
          "164005.935000",
          "164008.545000",
          "164011.155000",
          "164013.767500",
          "164016.377500",
          "164018.987500",
          "164021.597500",
          "164024.207500",
          "164026.817500",
          "164029.430000",
          "164032.040000",
          "164034.650000",
          "164037.260000",
          "164039.870000",
          "164042.480000",
          "164045.092500",
          "164047.702500",
          "164050.312500",
          "164052.922500",
          "164055.532500",
          "164058.145000",
          "164100.755000",
          "164103.365000",
          "164105.975000",
          "164108.585000",
          "164111.195000",
          "164113.807500",
          "164116.417500",
          "164119.027500",
          "164121.637500",
          "164124.247500",
          "164126.857500",
          "164129.470000",
          "164132.080000",
          "164134.690000",
          "164137.300000",
          "164139.910000",
          "164142.522500",
          "164145.132500",
          "164147.742500",
          "164150.352500",
          "164152.962500",
          "164155.572500",
          "164158.185000",
          "164200.795000",
          "164203.405000",
          "164206.015000",
          "164208.625000",
          "164211.235000",
          "164213.847500",
          "164216.457500",
          "164219.067500",
          "164221.677500",
          "164224.287500",
          "164226.900000",
          "164229.510000",
          "164232.120000",
          "164234.730000",
          "164237.340000",
          "164239.950000",
          "164242.562500",
          "164245.172500",
          "164247.782500",
          "164250.392500",
          "164253.002500",
          "164255.612500",
          "164258.225000",
          "164300.835000",
          "164303.445000",
          "164306.055000",
          "164308.665000",
          "164311.277500",
          "164313.887500",
          "164316.497500",
          "164319.107500",
          "164321.717500",
          "164324.327500",
          "164326.940000",
          "164329.550000",
          "164332.160000",
          "164334.770000",
          "164337.380000",
          "164339.990000",
          "164342.602500",
          "164345.212500",
          "164347.822500",
          "164350.432500",
          "164353.042500",
          "164355.655000",
          "164358.265000",
          "164400.875000",
          "164403.485000",
          "164406.095000",
          "164408.705000",
          "164411.317500",
          "164413.927500",
          "164416.537500",
          "164419.147500",
          "164421.757500",
          "164424.367500",
          "164426.980000",
          "164429.590000",
          "164432.200000",
          "164434.810000",
          "164437.420000",
          "164440.032500",
          "164442.642500",
          "164445.252500",
          "164447.862500",
          "164450.472500",
          "164453.082500",
          "164455.695000",
          "164458.305000",
          "164500.915000",
          "164503.525000",
          "164506.135000",
          "164508.745000",
          "164511.357500",
          "164513.967500",
          "164516.577500",
          "164519.187500",
          "164521.797500",
          "164524.410000",
          "164527.020000",
          "164529.630000",
          "164532.240000",
          "164534.850000",
          "164537.460000",
          "164540.072500",
          "164542.682500",
          "164545.292500",
          "164547.902500",
          "164550.512500",
          "164553.122500",
          "164555.735000",
          "164558.345000",
          "164600.955000",
          "164603.565000",
          "164606.175000",
          "164608.787500",
          "164611.397500",
          "164614.007500",
          "164616.617500",
          "164619.227500"
        ],
        "ContentTime": [
          "164000.390000",
          "164000.390000",
          "164001.359000",
          "164003.359000",
          "164005.859000",
          "164008.359000",
          "164011.359000",
          "164013.859000",
          "164016.359000",
          "164018.859000",
          "164021.359000",
          "164024.359000",
          "164026.859000",
          "164029.359000",
          "164031.859000",
          "164034.359000",
          "164037.359000",
          "164039.859000",
          "164042.359000",
          "164044.859000",
          "164047.359000",
          "164050.359000",
          "164052.859000",
          "164055.359000",
          "164057.859000",
          "164100.359000",
          "164103.359000",
          "164105.859000",
          "164108.359000",
          "164110.859000",
          "164113.359000",
          "164116.359000",
          "164118.859000",
          "164121.359000",
          "164123.859000",
          "164126.359000",
          "164129.359000",
          "164131.859000",
          "164134.359000",
          "164136.859000",
          "164139.359000",
          "164142.359000",
          "164144.859000",
          "164147.359000",
          "164149.859000",
          "164152.359000",
          "164155.359000",
          "164157.859000",
          "164200.359000",
          "164202.859000",
          "164205.359000",
          "164208.359000",
          "164210.859000",
          "164213.359000",
          "164215.859000",
          "164218.359000",
          "164221.359000",
          "164223.859000",
          "164226.359000",
          "164228.859000",
          "164231.359000",
          "164234.359000",
          "164236.859000",
          "164239.359000",
          "164241.859000",
          "164244.359000",
          "164247.359000",
          "164249.859000",
          "164252.359000",
          "164254.859000",
          "164257.359000",
          "164300.359000",
          "164302.859000",
          "164305.359000",
          "164307.859000",
          "164310.359000",
          "164313.359000",
          "164315.859000",
          "164318.359000",
          "164320.859000",
          "164323.359000",
          "164326.359000",
          "164328.859000",
          "164331.359000",
          "164333.859000",
          "164336.359000",
          "164339.359000",
          "164341.859000",
          "164344.359000",
          "164346.859000",
          "164349.359000",
          "164352.359000",
          "164354.859000",
          "164357.359000",
          "164359.859000",
          "164402.359000",
          "164405.359000",
          "164407.859000",
          "164410.359000",
          "164412.859000",
          "164415.359000",
          "164418.359000",
          "164420.859000",
          "164423.359000",
          "164425.859000",
          "164428.359000",
          "164431.359000",
          "164433.859000",
          "164436.359000",
          "164438.859000",
          "164441.359000",
          "164444.359000",
          "164446.859000",
          "164449.359000",
          "164451.859000",
          "164454.359000",
          "164457.359000",
          "164459.859000",
          "164502.359000",
          "164504.859000",
          "164507.359000",
          "164510.359000",
          "164512.859000",
          "164515.359000",
          "164517.875000",
          "164520.359000",
          "164523.359000",
          "164525.859000",
          "164528.359000",
          "164530.859000",
          "164533.359000",
          "164536.359000",
          "164538.859000",
          "164541.359000",
          "164543.859000",
          "164546.359000",
          "164549.359000",
          "164551.859000",
          "164554.359000",
          "164556.859000",
          "164559.359000",
          "164602.359000",
          "164604.859000",
          "164607.359000",
          "164609.859000",
          "164612.359000",
          "164615.359000",
          "164617.859000",
          "164620.359000",
          "164627.718000"
        ],
        "InstanceCreationTime": [
          "164000.390000",
          "164000.390000",
          "164001.359000",
          "164003.359000",
          "164005.859000",
          "164008.359000",
          "164011.359000",
          "164013.859000",
          "164016.359000",
          "164018.859000",
          "164021.359000",
          "164024.359000",
          "164026.859000",
          "164029.359000",
          "164031.859000",
          "164034.359000",
          "164037.359000",
          "164039.859000",
          "164042.359000",
          "164044.859000",
          "164047.359000",
          "164050.359000",
          "164052.859000",
          "164055.359000",
          "164057.859000",
          "164100.359000",
          "164103.359000",
          "164105.859000",
          "164108.359000",
          "164110.859000",
          "164113.359000",
          "164116.359000",
          "164118.859000",
          "164121.359000",
          "164123.859000",
          "164126.359000",
          "164129.359000",
          "164131.859000",
          "164134.359000",
          "164136.859000",
          "164139.359000",
          "164142.359000",
          "164144.859000",
          "164147.359000",
          "164149.859000",
          "164152.359000",
          "164155.359000",
          "164157.859000",
          "164200.359000",
          "164202.859000",
          "164205.359000",
          "164208.359000",
          "164210.859000",
          "164213.359000",
          "164215.859000",
          "164218.359000",
          "164221.359000",
          "164223.859000",
          "164226.359000",
          "164228.859000",
          "164231.359000",
          "164234.359000",
          "164236.859000",
          "164239.359000",
          "164241.859000",
          "164244.359000",
          "164247.359000",
          "164249.859000",
          "164252.359000",
          "164254.859000",
          "164257.359000",
          "164300.359000",
          "164302.859000",
          "164305.359000",
          "164307.859000",
          "164310.359000",
          "164313.359000",
          "164315.859000",
          "164318.359000",
          "164320.859000",
          "164323.359000",
          "164326.359000",
          "164328.859000",
          "164331.359000",
          "164333.859000",
          "164336.359000",
          "164339.359000",
          "164341.859000",
          "164344.359000",
          "164346.859000",
          "164349.359000",
          "164352.359000",
          "164354.859000",
          "164357.359000",
          "164359.859000",
          "164402.359000",
          "164405.359000",
          "164407.859000",
          "164410.359000",
          "164412.859000",
          "164415.359000",
          "164418.359000",
          "164420.859000",
          "164423.359000",
          "164425.859000",
          "164428.359000",
          "164431.359000",
          "164433.859000",
          "164436.359000",
          "164438.859000",
          "164441.359000",
          "164444.359000",
          "164446.859000",
          "164449.359000",
          "164451.859000",
          "164454.359000",
          "164457.359000",
          "164459.859000",
          "164502.359000",
          "164504.859000",
          "164507.359000",
          "164510.359000",
          "164512.859000",
          "164515.359000",
          "164517.875000",
          "164520.359000",
          "164523.359000",
          "164525.859000",
          "164528.359000",
          "164530.859000",
          "164533.359000",
          "164536.359000",
          "164538.859000",
          "164541.359000",
          "164543.859000",
          "164546.359000",
          "164549.359000",
          "164551.859000",
          "164554.359000",
          "164556.859000",
          "164559.359000",
          "164602.359000",
          "164604.859000",
          "164607.359000",
          "164609.859000",
          "164612.359000",
          "164615.359000",
          "164617.859000",
          "164620.359000",
          "164627.718000"
        ],
        "InstanceNumber": [
          1,
          2,
          3,
          4,
          5,
          6,
          7,
          8,
          9,
          10,
          11,
          12,
          13,
          14,
          15,
          16,
          17,
          18,
          19,
          20,
          21,
          22,
          23,
          24,
          25,
          26,
          27,
          28,
          29,
          30,
          31,
          32,
          33,
          34,
          35,
          36,
          37,
          38,
          39,
          40,
          41,
          42,
          43,
          44,
          45,
          46,
          47,
          48,
          49,
          50,
          51,
          52,
          53,
          54,
          55,
          56,
          57,
          58,
          59,
          60,
          61,
          62,
          63,
          64,
          65,
          66,
          67,
          68,
          69,
          70,
          71,
          72,
          73,
          74,
          75,
          76,
          77,
          78,
          79,
          80,
          81,
          82,
          83,
          84,
          85,
          86,
          87,
          88,
          89,
          90,
          91,
          92,
          93,
          94,
          95,
          96,
          97,
          98,
          99,
          100,
          101,
          102,
          103,
          104,
          105,
          106,
          107,
          108,
          109,
          110,
          111,
          112,
          113,
          114,
          115,
          116,
          117,
          118,
          119,
          120,
          121,
          122,
          123,
          124,
          125,
          126,
          127,
          128,
          129,
          130,
          131,
          132,
          133,
          134,
          135,
          136,
          137,
          138,
          139,
          140,
          141,
          142,
          143,
          144,
          145,
          146,
          147,
          148,
          149,
          150
        ],
        "WindowCenter": [
          819.0,
          818.0,
          817.0,
          818.0,
          820.0,
          820.0,
          819.0,
          818.0,
          819.0,
          819.0,
          817.0,
          816.0,
          817.0,
          818.0,
          817.0,
          817.0,
          817.0,
          818.0,
          818.0,
          818.0,
          818.0,
          819.0,
          819.0,
          819.0,
          817.0,
          817.0,
          818.0,
          818.0,
          819.0,
          819.0,
          819.0,
          819.0,
          819.0,
          819.0,
          819.0,
          819.0,
          819.0,
          819.0,
          819.0,
          819.0,
          819.0,
          818.0,
          820.0,
          820.0,
          819.0,
          819.0,
          818.0,
          819.0,
          821.0,
          819.0,
          818.0,
          817.0,
          818.0,
          818.0,
          818.0,
          819.0,
          819.0,
          820.0,
          820.0,
          819.0,
          818.0,
          819.0,
          819.0,
          819.0,
          818.0,
          819.0,
          821.0,
          819.0,
          819.0,
          819.0,
          818.0,
          818.0,
          818.0,
          819.0,
          819.0,
          820.0,
          819.0,
          819.0,
          819.0,
          820.0,
          820.0,
          820.0,
          819.0,
          820.0,
          821.0,
          819.0,
          819.0,
          819.0,
          820.0,
          820.0,
          818.0,
          818.0,
          819.0,
          820.0,
          820.0,
          821.0,
          821.0,
          821.0,
          819.0,
          818.0,
          819.0,
          819.0,
          819.0,
          819.0,
          819.0,
          819.0,
          820.0,
          820.0,
          820.0,
          822.0,
          822.0,
          821.0,
          819.0,
          819.0,
          818.0,
          818.0,
          819.0,
          821.0,
          821.0,
          822.0,
          822.0,
          821.0,
          820.0,
          818.0,
          818.0,
          822.0,
          820.0,
          819.0,
          819.0,
          820.0,
          821.0,
          822.0,
          820.0,
          821.0,
          820.0,
          820.0,
          819.0,
          820.0,
          820.0,
          820.0,
          820.0,
          821.0,
          820.0,
          819.0,
          819.0,
          819.0,
          819.0,
          820.0,
          821.0,
          822.0
        ],
        "WindowWidth": [
          1893.0,
          1889.0,
          1888.0,
          1892.0,
          1897.0,
          1898.0,
          1893.0,
          1889.0,
          1895.0,
          1894.0,
          1888.0,
          1884.0,
          1887.0,
          1893.0,
          1888.0,
          1887.0,
          1888.0,
          1890.0,
          1891.0,
          1891.0,
          1891.0,
          1896.0,
          1896.0,
          1895.0,
          1889.0,
          1890.0,
          1894.0,
          1894.0,
          1897.0,
          1895.0,
          1894.0,
          1896.0,
          1896.0,
          1896.0,
          1897.0,
          1897.0,
          1896.0,
          1896.0,
          1895.0,
          1894.0,
          1894.0,
          1893.0,
          1898.0,
          1898.0,
          1894.0,
          1893.0,
          1889.0,
          1894.0,
          1903.0,
          1895.0,
          1892.0,
          1889.0,
          1889.0,
          1890.0,
          1892.0,
          1893.0,
          1894.0,
          1899.0,
          1898.0,
          1894.0,
          1892.0,
          1896.0,
          1895.0,
          1896.0,
          1892.0,
          1896.0,
          1903.0,
          1896.0,
          1897.0,
          1895.0,
          1892.0,
          1890.0,
          1892.0,
          1894.0,
          1897.0,
          1897.0,
          1894.0,
          1894.0,
          1893.0,
          1898.0,
          1897.0,
          1897.0,
          1895.0,
          1897.0,
          1901.0,
          1896.0,
          1892.0,
          1896.0,
          1899.0,
          1897.0,
          1892.0,
          1891.0,
          1896.0,
          1898.0,
          1899.0,
          1904.0,
          1903.0,
          1901.0,
          1895.0,
          1892.0,
          1893.0,
          1894.0,
          1896.0,
          1894.0,
          1894.0,
          1895.0,
          1899.0,
          1897.0,
          1901.0,
          1906.0,
          1906.0,
          1903.0,
          1895.0,
          1893.0,
          1889.0,
          1891.0,
          1895.0,
          1901.0,
          1904.0,
          1908.0,
          1907.0,
          1902.0,
          1896.0,
          1891.0,
          1893.0,
          1906.0,
          1898.0,
          1895.0,
          1897.0,
          1900.0,
          1903.0,
          1904.0,
          1898.0,
          1902.0,
          1900.0,
          1898.0,
          1896.0,
          1900.0,
          1900.0,
          1896.0,
          1899.0,
          1900.0,
          1898.0,
          1893.0,
          1893.0,
          1895.0,
          1896.0,
          1898.0,
          1902.0,
          1906.0
        ]
      },
      "slices": {}
    }
  },
  "dummy_trs": 0,
  "dvars_nstd": 76.71895266523491,
  "dvars_std": 1.0891937192617447,
  "dvars_vstd": 1.0189717762416104,
  "efc": 0.5328173738467776,
  "fber": 436.2039794921875,
  "fd_mean": 0.0725246274587689,
  "fd_num": 2,
  "fd_perc": 1.3333333333333333,
  "fwhm_avg": 2.8944725452881244,
  "fwhm_x": 2.8581565733270393,
  "fwhm_y": 2.8922338533817142,
  "fwhm_z": 2.93302720915562,
  "gcor": 0.00365268,
  "gsr_x": -0.006206563673913479,
  "gsr_y": 0.05130862444639206,
  "provenance": {
    "md5sum": "5d506b3adf10a6f3a827119eed150f1c",
    "settings": {
      "fd_thres": 0.2,
      "testing": false
    },
    "software": "mriqc",
    "version": "22.0.6",
    "webapi_port": null,
    "webapi_url": "https://mriqc.nimh.nih.gov/api/v1"
  },
  "size_t": 150,
  "size_x": 188,
  "size_y": 188,
  "size_z": 46,
  "snr": 2.374630967437233,
  "spacing_tr": 2.5999999046325684,
  "spacing_x": 1.0957447290420532,
  "spacing_y": 1.0957447290420532,
  "spacing_z": 1.100000023841858,
  "summary_bg_k": 75.09906537883234,
  "summary_bg_mad": 19.91629131010622,
  "summary_bg_mean": 78.980712890625,
  "summary_bg_median": 44.77333450317383,
  "summary_bg_n": 1133431.0,
  "summary_bg_p05": 29.96666717529297,
