{
  "aor": 0.0006332000000000001,
  "aqi": 0.013824730666666667,
  "bids_meta": {
    "AcquisitionMatrixPE": 188,
    "AcquisitionNumber": 1,
    "AcquisitionTime": "16:47:31.215000",
    "BandwidthPerPixelPhaseEncode": 19.46,
    "BaseResolution": 188,
    "ConversionSoftware": "dcm2niix",
    "ConversionSoftwareVersion": "v1.0.20180606 GCC4.8.5",
    "DelayTime": 1.2,
    "DerivedVendorReportedEchoSpacing": 0.000820013,
    "DeviceSerialNumber": "18930",
    "DwellTime": 1.9e-06,
    "EchoTime": 0.02,
    "EffectiveEchoSpacing": 0.000273338,
    "FlipAngle": 80,
    "ImageComments": "Unaliased_MB2_PE2",
    "ImageOrientationPatientDICOM": [
      0.999735,
      -0.0174383,
      -0.0150539,
      -0.0126913,
      0.128453,
      -0.991634
    ],
    "ImageType": [
      "ORIGINAL",
      "PRIMARY",
      "M",
      "MB",
      "ND",
      "MOSAIC"
    ],
    "InPlanePhaseEncodingDirectionDICOM": "COL",
    "InstitutionAddress": "Oxfordlaan_55_Maastricht_753AAF_Limburg_NL_6229_EV",
    "InstitutionName": "Scannexus",
    "InstitutionalDepartmentName": "MRI_7T",
    "MRAcquisitionType": "2D",
    "MagneticFieldStrength": 6.98,
    "Manufacturer": "Siemens",
    "ManufacturersModelName": "Investigational_Device_7T",
    "Modality": "MR",
    "MultibandAccelerationFactor": 2,
    "ParallelReductionFactorInPlane": 3,
    "PartialFourier": 0.75,
    "PatientPosition": "HFS",
    "PercentPhaseFOV": 100,
    "PhaseEncodingDirection": "j",
    "PhaseEncodingSteps": 141,
    "PhaseResolution": 1,
    "PixelBandwidth": 1400,
    "ProcedureStepDescription": "FeDem_Faruk",
    "ProtocolName": "cmrr_mbep2d_bold_AP_run9",
    "PulseSequenceDetails": "%CustomerSeq%_cmrr_mbep2d_bold",
    "ReceiveCoilName": "32Ch_Head_7T",
    "ReconMatrixPE": 188,
    "RepetitionTime": 2.6,
    "SAR": 0.106323,
    "ScanOptions": "PFP_FS",
    "ScanningSequence": "EP",
    "SequenceName": "epfid2d1_188",
    "SequenceVariant": "SK_SS",
    "SeriesDescription": "cmrr_mbep2d_bold_AP_run9",
    "SeriesNumber": 22,
    "ShimSetting": [
      38,
      -81,
      367,
      509,
      -111,
      388,
      -130,
      141
    ],
    "SliceThickness": 1.1,
    "SliceTiming": [
      0,
      0.735,
      0.0625,
      0.795,
      0.1225,
      0.8575,
      0.185,
      0.9175,
      0.245,
      0.9775,
      0.3075,
      1.04,
      0.3675,
      1.1,
      0.4275,
      1.1625,
      0.49,
      1.2225,
      0.55,
      1.285,
      0.6125,
      1.345,
      0.6725,
      0,
      0.735,
      0.0625,
      0.795,
      0.1225,
      0.8575,
      0.185,
      0.9175,
      0.245,
      0.9775,
      0.3075,
      1.04,
      0.3675,
      1.1,
      0.4275,
      1.1625,
      0.49,
      1.2225,
      0.55,
      1.285,
      0.6125,
      1.345,
      0.6725
    ],
    "SoftwareVersions": "syngo_MR_B17",
    "SpacingBetweenSlices": 1.1,
    "StationName": "MRC18930",
    "TaskName": "auditory",
    "TotalReadoutTime": 0.0511141,
    "TxRefAmp": 240,
    "dataset": "ds001942",
    "dcmmeta_affine": [
      [
        -1.0954539775848389,
        -0.013906460255384445,
        -0.02114875242114067,
        110.03825378417969
      ],
      [
        0.019107934087514877,
        0.14075127243995667,
        -1.0907185077667236,
        31.862977981567383
      ],
      [
        -0.016495225951075554,
        1.0865782499313354,
        0.14101693034172058,
        -120.29054260253906
      ],
      [
        0.0,
        0.0,
        0.0,
        1.0
      ]
    ],
    "dcmmeta_reorient_transform": [
      [
        0.0,
        -1.0,
        0.0,
        187.0
      ],
      [
        1.0,
        0.0,
        0.0,
        0.0
      ],
      [
        0.0,
        0.0,
        1.0,
        0.0
      ],
      [
        0.0,
        0.0,
        0.0,
        1.0
      ]
    ],
    "dcmmeta_shape": [
      188,
      188,
      46,
      150
    ],
    "dcmmeta_slice_dim": 2,
    "dcmmeta_version": 0.6,
    "global": {
      "const": {
        "AcquisitionMatrix": [
          188,
          0,
          0,
          188
        ],
        "AngioFlag": "N",
        "BitsAllocated": 16,
        "BitsStored": 12,
        "Columns": 1316,
        "EchoNumbers": 1,
        "EchoTime": 20.0,
        "EchoTrainLength": 1,
        "FlipAngle": 80.0,
        "HighBit": 11,
        "ImageOrientationPatient": [
          0.99973460762243,
          -0.0174383082265,
          -0.0150538941213,
          -0.0126913317262,
          0.1284526139087,
          -0.991634436715
        ],
        "ImagePositionPatient": [
          -717.4305167741,
          -126.79031083699,
          705.03299846262
        ],
        "ImageType": [
          "ORIGINAL",
          "PRIMARY",
          "M",
          "MB",
          "ND",
          "MOSAIC"
        ],
        "ImagedNucleus": "1H",
        "ImagingFrequency": 297.20563,
        "InPlanePhaseEncodingDirection": "COL",
        "LargestImagePixelValue": 4095,
        "MRAcquisitionType": "2D",
        "MagneticFieldStrength": 6.98,
        "Manufacturer": "SIEMENS",
        "ManufacturerModelName": "Investigational_Device_7T",
        "Modality": "MR",
        "NumberOfAverages": 1.0,
        "NumberOfPhaseEncodingSteps": 141,
        "PercentPhaseFieldOfView": 100.0,
        "PercentSampling": 100.0,
        "PerformedProcedureStepStartTime": "144037.625000",
        "PhotometricInterpretation": "MONOCHROME2",
        "PixelBandwidth": 1400.0,
        "PixelRepresentation": 0,
        "PixelSpacing": [
          1.0957447290421,
          1.0957447290421
        ],
        "ProtocolName": "cmrr_mbep2d_bold_AP_run9",
        "RepetitionTime": 2600.0,
        "Rows": 1316,
        "SAR": 0.10632262302578,
        "SamplesPerPixel": 1,
        "ScanOptions": [
          "PFP",
          "FS"
        ],
        "ScanningSequence": "EP",
        "SequenceName": "epfid2d1_188",
        "SequenceVariant": [
          "SK",
          "SS"
        ],
        "SeriesDescription": "cmrr_mbep2d_bold_AP_run9",
        "SeriesNumber": 22,
        "SeriesTime": "164740.953000",
        "SliceLocation": -49.13065131481,
        "SliceThickness": 1.1000000238419,
        "SmallestImagePixelValue": 0,
        "SoftwareVersions": "syngo MR B17",
        "SpacingBetweenSlices": 1.0999999671667,
        "SpecificCharacterSet": "ISO_IR 100",
        "StudyID": "1",
        "StudyTime": "144037.484000",
        "TransmitCoilName": "32Ch_Head_7T",
        "VariableFlipAngleFlag": "N",
        "WindowCenterWidthExplanation": "Algo1",
        "dBdt": 0.0
      },
      "slices": {}
    },
    "modality": "bold",
    "run_id": 9,
    "session_id": "SES02",
    "subject_id": "S08",
    "task_id": "auditory",
    "time": {
      "samples": {
        "AcquisitionNumber": [
          1,
          2,
          3,
          4,
          5,
          6,
          7,
          8,
          9,
          10,
          11,
          12,
          13,
          14,
          15,
          16,
          17,
          18,
          19,
          20,
          21,
          22,
          23,
          24,
          25,
          26,
          27,
          28,
          29,
          30,
          31,
          32,
          33,
          34,
          35,
          36,
          37,
          38,
          39,
          40,
          41,
          42,
          43,
          44,
          45,
          46,
          47,
          48,
          49,
          50,
          51,
          52,
          53,
          54,
          55,
          56,
          57,
          58,
          59,
          60,
          61,
          62,
          63,
          64,
          65,
          66,
          67,
          68,
          69,
          70,
          71,
          72,
          73,
          74,
          75,
          76,
          77,
          78,
          79,
          80,
          81,
          82,
          83,
          84,
          85,
          86,
          87,
          88,
          89,
          90,
          91,
          92,
          93,
          94,
          95,
          96,
          97,
          98,
          99,
          100,
          101,
          102,
          103,
          104,
          105,
          106,
          107,
          108,
          109,
          110,
          111,
          112,
          113,
          114,
          115,
          116,
          117,
          118,
          119,
          120,
          121,
          122,
          123,
          124,
          125,
          126,
          127,
          128,
          129,
          130,
          131,
          132,
          133,
          134,
          135,
          136,
          137,
          138,
          139,
          140,
          141,
          142,
          143,
          144,
          145,
          146,
          147,
          148,
          149,
          150
        ],
        "AcquisitionTime": [
          "164731.215000",
          "164733.827500",
          "164736.437500",
          "164739.047500",
          "164741.657500",
          "164744.267500",
          "164746.877500",
          "164749.490000",
          "164752.100000",
          "164754.710000",
          "164757.320000",
          "164759.930000",
          "164802.542500",
          "164805.152500",
          "164807.762500",
          "164810.372500",
          "164812.982500",
          "164815.592500",
          "164818.205000",
          "164820.815000",
          "164823.425000",
          "164826.035000",
          "164828.645000",
          "164831.255000",
          "164833.867500",
          "164836.477500",
          "164839.087500",
          "164841.697500",
          "164844.307500",
          "164846.920000",
          "164849.530000",
          "164852.140000",
          "164854.750000",
          "164857.360000",
          "164859.970000",
          "164902.582500",
          "164905.192500",
          "164907.802500",
          "164910.412500",
          "164913.022500",
          "164915.632500",
          "164918.245000",
          "164920.855000",
          "164923.465000",
          "164926.075000",
          "164928.685000",
          "164931.297500",
          "164933.907500",
          "164936.517500",
          "164939.127500",
          "164941.737500",
          "164944.347500",
          "164946.960000",
          "164949.570000",
          "164952.180000",
          "164954.790000",
          "164957.400000",
          "165000.010000",
          "165002.622500",
          "165005.232500",
          "165007.842500",
          "165010.452500",
          "165013.062500",
          "165015.675000",
          "165018.285000",
          "165020.895000",
          "165023.505000",
          "165026.115000",
          "165028.725000",
          "165031.337500",
          "165033.947500",
          "165036.557500",
          "165039.167500",
          "165041.777500",
          "165044.387500",
          "165047.000000",
          "165049.610000",
          "165052.220000",
          "165054.830000",
          "165057.440000",
          "165100.052500",
          "165102.662500",
          "165105.272500",
          "165107.882500",
          "165110.492500",
          "165113.102500",
          "165115.715000",
          "165118.325000",
          "165120.935000",
          "165123.545000",
          "165126.155000",
          "165128.765000",
          "165131.377500",
          "165133.987500",
          "165136.597500",
          "165139.207500",
          "165141.817500",
          "165144.430000",
          "165147.040000",
          "165149.650000",
          "165152.260000",
          "165154.870000",
          "165157.480000",
          "165200.092500",
          "165202.702500",
          "165205.312500",
          "165207.922500",
          "165210.532500",
          "165213.142500",
          "165215.755000",
          "165218.365000",
          "165220.975000",
          "165223.585000",
          "165226.195000",
          "165228.807500",
          "165231.417500",
          "165234.027500",
          "165236.637500",
          "165239.247500",
          "165241.857500",
          "165244.470000",
          "165247.080000",
          "165249.690000",
          "165252.300000",
          "165254.910000",
          "165257.520000",
          "165300.132500",
          "165302.742500",
          "165305.352500",
          "165307.962500",
          "165310.572500",
          "165313.185000",
          "165315.795000",
          "165318.405000",
          "165321.015000",
          "165323.625000",
          "165326.235000",
          "165328.847500",
          "165331.457500",
          "165334.067500",
          "165336.677500",
          "165339.287500",
          "165341.897500",
          "165344.510000",
          "165347.120000",
          "165349.730000",
          "165352.340000",
          "165354.950000",
          "165357.562500",
          "165400.172500"
        ],
        "ContentTime": [
          "164740.953000",
          "164740.953000",
          "164741.953000",
          "164743.953000",
          "164746.453000",
          "164748.953000",
          "164751.953000",
          "164754.453000",
          "164756.953000",
          "164759.453000",
          "164801.953000",
          "164804.953000",
          "164807.453000",
          "164809.953000",
          "164812.453000",
          "164814.953000",
          "164817.953000",
          "164820.453000",
          "164822.953000",
          "164825.453000",
          "164827.953000",
          "164830.953000",
          "164833.453000",
          "164835.953000",
          "164838.453000",
          "164840.953000",
          "164843.953000",
          "164846.453000",
          "164848.953000",
          "164851.453000",
          "164853.953000",
          "164856.953000",
          "164859.453000",
          "164901.953000",
          "164904.453000",
          "164906.953000",
          "164909.953000",
          "164912.453000",
          "164914.953000",
          "164917.453000",
          "164919.953000",
          "164922.953000",
          "164925.453000",
          "164927.953000",
          "164930.453000",
          "164932.953000",
          "164935.953000",
          "164938.453000",
          "164940.953000",
          "164943.453000",
          "164945.953000",
          "164948.953000",
          "164951.453000",
          "164953.953000",
          "164956.453000",
          "164958.953000",
          "165001.953000",
          "165004.453000",
          "165006.953000",
          "165009.453000",
          "165011.953000",
          "165014.953000",
          "165017.453000",
          "165019.953000",
          "165022.453000",
          "165024.953000",
          "165027.953000",
          "165030.453000",
          "165032.953000",
          "165035.453000",
          "165037.953000",
          "165040.953000",
          "165043.453000",
          "165045.953000",
          "165048.453000",
          "165050.953000",
          "165053.953000",
          "165056.453000",
          "165058.953000",
          "165101.453000",
          "165103.953000",
          "165106.953000",
          "165109.453000",
          "165111.953000",
          "165114.453000",
          "165116.953000",
          "165119.953000",
          "165122.453000",
          "165124.953000",
          "165127.453000",
          "165129.953000",
          "165132.953000",
          "165135.453000",
          "165137.953000",
          "165140.453000",
          "165142.953000",
          "165145.953000",
          "165148.453000",
          "165150.953000",
          "165153.453000",
          "165155.953000",
          "165158.953000",
          "165201.453000",
          "165203.953000",
          "165206.453000",
          "165208.953000",
          "165211.953000",
          "165214.453000",
          "165216.953000",
          "165219.453000",
          "165221.953000",
          "165224.953000",
          "165227.453000",
          "165229.953000",
          "165232.453000",
          "165234.953000",
          "165237.953000",
          "165240.453000",
          "165242.953000",
          "165245.453000",
          "165247.953000",
          "165250.953000",
          "165253.453000",
          "165255.953000",
          "165258.453000",
          "165300.953000",
          "165303.953000",
          "165306.453000",
          "165308.953000",
          "165311.453000",
          "165313.953000",
          "165316.953000",
          "165319.453000",
          "165321.953000",
          "165324.453000",
          "165326.953000",
          "165329.953000",
          "165332.453000",
          "165334.953000",
          "165337.453000",
          "165339.953000",
          "165342.953000",
          "165345.453000",
          "165347.953000",
          "165350.453000",
          "165352.953000",
          "165355.953000",
          "165358.453000",
          "165400.953000",
          "165408.312000"
        ],
        "InstanceCreationTime": [
          "164740.953000",
          "164740.953000",
          "164741.953000",
          "164743.953000",
          "164746.453000",
          "164748.953000",
          "164751.953000",
          "164754.453000",
          "164756.953000",
          "164759.453000",
          "164801.953000",
          "164804.953000",
          "164807.453000",
          "164809.953000",
          "164812.453000",
          "164814.953000",
          "164817.953000",
          "164820.453000",
          "164822.953000",
          "164825.453000",
          "164827.953000",
          "164830.953000",
          "164833.453000",
          "164835.953000",
          "164838.453000",
          "164840.953000",
          "164843.953000",
          "164846.453000",
          "164848.953000",
          "164851.453000",
          "164853.953000",
          "164856.953000",
          "164859.453000",
          "164901.953000",
          "164904.453000",
          "164906.953000",
          "164909.953000",
          "164912.453000",
          "164914.953000",
          "164917.453000",
          "164919.953000",
          "164922.953000",
          "164925.453000",
          "164927.953000",
          "164930.453000",
          "164932.953000",
          "164935.953000",
          "164938.453000",
          "164940.953000",
          "164943.453000",
          "164945.953000",
          "164948.953000",
          "164951.453000",
          "164953.953000",
          "164956.453000",
          "164958.953000",
          "165001.953000",
          "165004.453000",
          "165006.953000",
          "165009.453000",
          "165011.953000",
          "165014.953000",
          "165017.453000",
          "165019.953000",
          "165022.453000",
          "165024.953000",
          "165027.953000",
          "165030.453000",
          "165032.953000",
          "165035.453000",
          "165037.953000",
          "165040.953000",
          "165043.453000",
          "165045.953000",
          "165048.453000",
          "165050.953000",
          "165053.953000",
          "165056.453000",
          "165058.953000",
          "165101.453000",
          "165103.953000",
          "165106.953000",
          "165109.453000",
          "165111.953000",
          "165114.453000",
          "165116.953000",
          "165119.953000",
          "165122.453000",
          "165124.953000",
          "165127.453000",
          "165129.953000",
          "165132.953000",
          "165135.453000",
          "165137.953000",
          "165140.453000",
          "165142.953000",
          "165145.953000",
          "165148.453000",
          "165150.953000",
          "165153.453000",
          "165155.953000",
          "165158.953000",
          "165201.453000",
          "165203.953000",
          "165206.453000",
          "165208.953000",
          "165211.953000",
          "165214.453000",
          "165216.953000",
          "165219.453000",
          "165221.953000",
          "165224.953000",
          "165227.453000",
          "165229.953000",
          "165232.453000",
          "165234.953000",
          "165237.953000",
          "165240.453000",
          "165242.953000",
          "165245.453000",
          "165247.953000",
          "165250.953000",
          "165253.453000",
          "165255.953000",
          "165258.453000",
          "165300.953000",
          "165303.953000",
          "165306.453000",
          "165308.953000",
          "165311.453000",
          "165313.953000",
          "165316.953000",
          "165319.453000",
          "165321.953000",
          "165324.453000",
          "165326.953000",
          "165329.953000",
          "165332.453000",
          "165334.953000",
          "165337.453000",
          "165339.953000",
          "165342.953000",
          "165345.453000",
          "165347.953000",
          "165350.453000",
          "165352.953000",
          "165355.953000",
          "165358.453000",
          "165400.953000",
          "165408.312000"
        ],
        "InstanceNumber": [
          1,
          2,
          3,
          4,
          5,
          6,
          7,
          8,
          9,
          10,
          11,
          12,
          13,
          14,
          15,
          16,
          17,
          18,
          19,
          20,
          21,
          22,
          23,
          24,
          25,
          26,
          27,
          28,
          29,
          30,
          31,
          32,
          33,
          34,
          35,
          36,
          37,
          38,
          39,
          40,
          41,
          42,
          43,
          44,
          45,
          46,
          47,
          48,
          49,
          50,
          51,
          52,
          53,
          54,
          55,
          56,
          57,
          58,
          59,
          60,
          61,
          62,
          63,
          64,
          65,
          66,
          67,
          68,
          69,
          70,
          71,
          72,
          73,
          74,
          75,
          76,
          77,
          78,
          79,
          80,
          81,
          82,
          83,
          84,
          85,
          86,
          87,
          88,
          89,
          90,
          91,
          92,
          93,
          94,
          95,
          96,
          97,
          98,
          99,
          100,
          101,
          102,
          103,
          104,
          105,
          106,
          107,
          108,
          109,
          110,
          111,
          112,
          113,
          114,
          115,
          116,
          117,
          118,
          119,
          120,
          121,
          122,
          123,
          124,
          125,
          126,
          127,
          128,
          129,
          130,
          131,
          132,
          133,
          134,
          135,
          136,
          137,
          138,
          139,
          140,
          141,
          142,
          143,
          144,
          145,
          146,
          147,
          148,
          149,
          150
        ],
        "WindowCenter": [
          821.0,
          820.0,
          820.0,
          822.0,
          821.0,
          819.0,
          818.0,
          819.0,
          820.0,
          820.0,
          819.0,
          820.0,
          820.0,
          820.0,
          819.0,
          820.0,
          820.0,
          819.0,
          819.0,
          819.0,
          819.0,
          819.0,
          819.0,
          819.0,
          820.0,
          820.0,
          820.0,
          820.0,
          820.0,
          820.0,
          820.0,
          820.0,
          821.0,
          821.0,
          822.0,
          822.0,
          820.0,
          820.0,
          820.0,
          820.0,
          819.0,
          820.0,
          821.0,
          821.0,
          821.0,
          821.0,
          821.0,
          821.0,
          821.0,
          822.0,
          822.0,
          821.0,
          821.0,
          821.0,
          821.0,
          821.0,
          822.0,
          821.0,
          822.0,
          822.0,
          822.0,
          822.0,
          821.0,
          821.0,
          821.0,
          821.0,
          822.0,
          822.0,
          822.0,
          822.0,
          822.0,
          822.0,
          822.0,
          821.0,
          822.0,
          822.0,
          822.0,
          822.0,
          822.0,
          822.0,
          822.0,
          821.0,
          822.0,
          822.0,
          822.0,
          822.0,
          823.0,
          822.0,
          822.0,
          823.0,
          823.0,
          822.0,
          821.0,
          821.0,
          821.0,
          822.0,
          822.0,
          823.0,
          822.0,
          821.0,
          822.0,
          824.0,
          823.0,
          822.0,
          823.0,
          823.0,
          822.0,
          822.0,
          822.0,
          822.0,
          822.0,
          824.0,
          822.0,
          821.0,
          823.0,
          822.0,
          822.0,
          822.0,
          823.0,
          822.0,
          822.0,
          822.0,
          822.0,
          823.0,
          823.0,
          823.0,
          823.0,
          823.0,
          823.0,
          823.0,
          823.0,
          823.0,
          823.0,
          823.0,
          822.0,
          822.0,
          821.0,
          824.0,
          823.0,
          821.0,
          820.0,
          821.0,
          822.0,
          822.0,
          823.0,
          822.0,
          822.0,
          822.0,
          822.0,
          822.0
        ],
        "WindowWidth": [
          1899.0,
          1899.0,
          1900.0,
          1904.0,
          1900.0,
          1892.0,
          1892.0,
          1894.0,
          1896.0,
          1896.0,
          1893.0,
          1896.0,
          1896.0,
          1895.0,
          1896.0,
          1898.0,
          1897.0,
          1894.0,
          1895.0,
          1895.0,
          1895.0,
          1895.0,
          1896.0,
          1896.0,
          1898.0,
          1899.0,
          1899.0,
          1897.0,
          1898.0,
          1898.0,
          1899.0,
          1899.0,
          1902.0,
          1904.0,
          1908.0,
          1907.0,
          1899.0,
          1897.0,
          1902.0,
          1897.0,
          1894.0,
          1898.0,
          1902.0,
          1903.0,
          1902.0,
          1900.0,
          1900.0,
          1904.0,
          1903.0,
          1906.0,
          1905.0,
          1902.0,
          1903.0,
          1902.0,
          1902.0,
          1905.0,
          1905.0,
          1901.0,
          1905.0,
          1905.0,
          1908.0,
          1904.0,
          1902.0,
          1901.0,
          1902.0,
          1902.0,
          1906.0,
          1904.0,
          1904.0,
          1906.0,
          1907.0,
          1906.0,
          1905.0,
          1904.0,
          1907.0,
          1907.0,
          1907.0,
          1907.0,
          1905.0,
          1907.0,
          1903.0,
          1901.0,
          1904.0,
          1905.0,
          1906.0,
          1905.0,
          1907.0,
          1906.0,
          1907.0,
          1910.0,
          1909.0,
          1907.0,
          1902.0,
          1902.0,
          1902.0,
          1903.0,
          1907.0,
          1909.0,
          1905.0,
          1903.0,
          1908.0,
          1912.0,
          1908.0,
          1907.0,
          1910.0,
          1910.0,
          1906.0,
          1904.0,
          1904.0,
          1907.0,
          1907.0,
          1912.0,
          1906.0,
          1902.0,
          1907.0,
          1906.0,
          1906.0,
          1907.0,
          1909.0,
          1905.0,
          1904.0,
          1906.0,
          1906.0,
          1908.0,
          1908.0,
          1910.0,
          1911.0,
          1908.0,
          1910.0,
          1911.0,
          1910.0,
          1910.0,
          1910.0,
          1908.0,
          1907.0,
          1906.0,
          1904.0,
          1914.0,
          1910.0,
          1903.0,
          1898.0,
          1904.0,
          1905.0,
          1907.0,
          1909.0,
          1907.0,
          1906.0,
          1906.0,
          1905.0,
          1905.0
        ]
      },
      "slices": {}
    }
  },
  "dummy_trs": 0,
  "dvars_nstd": 75.84763003355705,
  "dvars_std": 1.0841819316107388,
  "dvars_vstd": 1.0152538125503348,
  "efc": 0.5328388484570801,
  "fber": 432.78271484375,
  "fd_mean": 0.06443812858742463,
  "fd_num": 2,
  "fd_perc": 1.3333333333333333,
  "fwhm_avg": 2.9048831774877364,
  "fwhm_x": 2.857992301489604,
  "fwhm_y": 2.907693658527033,
  "fwhm_z": 2.9489635724465724,
  "gcor": 0.00346946,
  "gsr_x": -0.00651774276047945,
  "gsr_y": 0.05209222808480263,
  "provenance": {
    "md5sum": "3fb75175ba4cd4755fbeac42a3415f1c",
    "settings": {
      "fd_thres": 0.2,
      "testing": false
    },
    "software": "mriqc",
    "version": "23.0.1",
    "webapi_port": null,
    "webapi_url": "https://mriqc.nimh.nih.gov/api/v1"
  },
  "size_t": 150,
  "size_x": 188,
  "size_y": 188,
  "size_z": 46,
  "snr": 2.352843126423771,
  "spacing_tr": 2.5999999046325684,
  "spacing_x": 1.0957447290420532,
  "spacing_y": 1.0957447290420532,
  "spacing_z": 1.100000023841858,
  "summary_bg_k": 74.68416088484783,
  "summary_bg_mad": 20.12385754362774,
  "summary_bg_mean": 79.89897155761719,
  "summary_bg_median": 45.06666946411133,
  "summary_bg_n": 1133359.0,
  "summary_bg_p05": 30.073333740234375,
  "summary_bg_p95": 234.20001220703125,
