{
  "aor": 0.0011048666666666667,
  "aqi": 0.015666054000000002,
  "bids_meta": {
    "AcquisitionMatrixPE": 188,
    "AcquisitionNumber": 1,
    "AcquisitionTime": "16:06:46.175000",
    "BandwidthPerPixelPhaseEncode": 19.46,
    "BaseResolution": 188,
    "CogAtlasID": "TODO",
    "ConversionSoftware": "dcm2niix",
    "ConversionSoftwareVersion": "v1.0.20180606 GCC4.8.5",
    "DelayTime": 1.2,
    "DerivedVendorReportedEchoSpacing": 0.000820013,
    "DeviceSerialNumber": "18930",
    "DwellTime": 1.9e-06,
    "EchoTime": 0.02,
    "EffectiveEchoSpacing": 0.000273338,
    "FlipAngle": 80,
    "ImageComments": "Unaliased_MB2_PE2",
    "ImageOrientationPatientDICOM": [
      0.999735,
      -0.0174383,
      -0.0150539,
      -0.0126913,
      0.128453,
      -0.991634
    ],
    "ImageType": [
      "ORIGINAL",
      "PRIMARY",
      "M",
      "MB",
      "ND",
      "MOSAIC"
    ],
    "InPlanePhaseEncodingDirectionDICOM": "COL",
    "InstitutionAddress": "Oxfordlaan_55_Maastricht_753AAF_Limburg_NL_6229_EV",
    "InstitutionName": "Scannexus",
    "InstitutionalDepartmentName": "MRI_7T",
    "MRAcquisitionType": "2D",
    "MagneticFieldStrength": 6.98,
    "Manufacturer": "Siemens",
    "ManufacturersModelName": "Investigational_Device_7T",
    "Modality": "MR",
    "MultibandAccelerationFactor": 2,
    "ParallelReductionFactorInPlane": 3,
    "PartialFourier": 0.75,
    "PatientPosition": "HFS",
    "PercentPhaseFOV": 100,
    "PhaseEncodingDirection": "j",
    "PhaseEncodingSteps": 141,
    "PhaseResolution": 1,
    "PixelBandwidth": 1400,
    "ProcedureStepDescription": "FeDem_Faruk",
    "ProtocolName": "cmrr_mbep2d_bold_AP_run4",
    "PulseSequenceDetails": "%CustomerSeq%_cmrr_mbep2d_bold",
    "ReceiveCoilName": "32Ch_Head_7T",
    "ReconMatrixPE": 188,
    "RepetitionTime": 2.6,
    "SAR": 0.106978,
    "ScanOptions": "PFP_FS",
    "ScanningSequence": "EP",
    "SequenceName": "epfid2d1_188",
    "SequenceVariant": "SK_SS",
    "SeriesDescription": "cmrr_mbep2d_bold_AP_run4",
    "SeriesNumber": 15,
    "ShimSetting": [
      38,
      -81,
      367,
      509,
      -111,
      388,
      -130,
      141
    ],
    "SliceThickness": 1.1,
    "SliceTiming": [
      0,
      0.7325,
      0.0625,
      0.795,
      0.1225,
      0.855,
      0.1825,
      0.9175,
      0.245,
      0.9775,
      0.305,
      1.04,
      0.3675,
      1.1,
      0.4275,
      1.1625,
      0.49,
      1.2225,
      0.55,
      1.2825,
      0.6125,
      1.345,
      0.6725,
      0,
      0.7325,
      0.0625,
      0.795,
      0.1225,
      0.855,
      0.1825,
      0.9175,
      0.245,
      0.9775,
      0.305,
      1.04,
      0.3675,
      1.1,
      0.4275,
      1.1625,
      0.49,
      1.2225,
      0.55,
      1.2825,
      0.6125,
      1.345,
      0.6725
    ],
    "SoftwareVersions": "syngo_MR_B17",
    "SpacingBetweenSlices": 1.1,
    "StationName": "MRC18930",
    "TaskName": "auditory",
    "TotalReadoutTime": 0.0511141,
    "TxRefAmp": 240,
    "dataset": "ds001942",
    "dcmmeta_affine": [
      [
        -1.0954539775848389,
        -0.013906460255384445,
        -0.02114875242114067,
        110.03825378417969
      ],
      [
        0.019107934087514877,
        0.14075127243995667,
        -1.0907185077667236,
        31.862977981567383
      ],
      [
        -0.016495225951075554,
        1.0865782499313354,
        0.14101693034172058,
        -120.29054260253906
      ],
      [
        0.0,
        0.0,
        0.0,
        1.0
      ]
    ],
    "dcmmeta_reorient_transform": [
      [
        0.0,
        -1.0,
        0.0,
        187.0
      ],
      [
        1.0,
        0.0,
        0.0,
        0.0
      ],
      [
        0.0,
        0.0,
        1.0,
        0.0
      ],
      [
        0.0,
        0.0,
        0.0,
        1.0
      ]
    ],
    "dcmmeta_shape": [
      188,
      188,
      46,
      150
    ],
    "dcmmeta_slice_dim": 2,
    "dcmmeta_version": 0.6,
    "global": {
      "const": {
        "AcquisitionMatrix": [
          188,
          0,
          0,
          188
        ],
        "AngioFlag": "N",
        "BitsAllocated": 16,
        "BitsStored": 12,
        "Columns": 1316,
        "EchoNumbers": 1,
        "EchoTime": 20.0,
        "EchoTrainLength": 1,
        "FlipAngle": 80.0,
        "HighBit": 11,
        "ImageOrientationPatient": [
          0.99973460762243,
          -0.0174383082265,
          -0.0150538941213,
          -0.0126913317262,
          0.1284526139087,
          -0.991634436715
        ],
        "ImagePositionPatient": [
          -717.4305167741,
          -126.79031083699,
          705.03299846262
        ],
        "ImageType": [
          "ORIGINAL",
          "PRIMARY",
          "M",
          "MB",
          "ND",
          "MOSAIC"
        ],
        "ImagedNucleus": "1H",
        "ImagingFrequency": 297.205618,
        "InPlanePhaseEncodingDirection": "COL",
        "LargestImagePixelValue": 4095,
        "MRAcquisitionType": "2D",
        "MagneticFieldStrength": 6.98,
        "Manufacturer": "SIEMENS",
        "ManufacturerModelName": "Investigational_Device_7T",
        "Modality": "MR",
        "NumberOfAverages": 1.0,
        "NumberOfPhaseEncodingSteps": 141,
        "PercentPhaseFieldOfView": 100.0,
        "PercentSampling": 100.0,
        "PerformedProcedureStepStartTime": "144037.625000",
        "PhotometricInterpretation": "MONOCHROME2",
        "PixelBandwidth": 1400.0,
        "PixelRepresentation": 0,
        "PixelSpacing": [
          1.0957447290421,
          1.0957447290421
        ],
        "ProtocolName": "cmrr_mbep2d_bold_AP_run4",
        "RepetitionTime": 2600.0,
        "Rows": 1316,
        "SAR": 0.10697803571032,
        "SamplesPerPixel": 1,
        "ScanOptions": [
          "PFP",
          "FS"
        ],
        "ScanningSequence": "EP",
        "SequenceName": "epfid2d1_188",
        "SequenceVariant": [
          "SK",
          "SS"
        ],
        "SeriesDescription": "cmrr_mbep2d_bold_AP_run4",
        "SeriesNumber": 15,
        "SeriesTime": "160655.921000",
        "SliceLocation": -49.13065131481,
        "SliceThickness": 1.1000000238419,
        "SmallestImagePixelValue": 0,
        "SoftwareVersions": "syngo MR B17",
        "SpacingBetweenSlices": 1.0999999671667,
        "SpecificCharacterSet": "ISO_IR 100",
        "StudyID": "1",
        "StudyTime": "144037.484000",
        "TransmitCoilName": "32Ch_Head_7T",
        "VariableFlipAngleFlag": "N",
        "WindowCenterWidthExplanation": "Algo1",
        "dBdt": 0.0
      },
      "slices": {}
    },
    "modality": "bold",
    "run_id": 4,
    "session_id": "SES02",
    "subject_id": "S08",
    "task_id": "auditory",
    "time": {
      "samples": {
        "AcquisitionNumber": [
          1,
          2,
          3,
          4,
          5,
          6,
          7,
          8,
          9,
          10,
          11,
          12,
          13,
          14,
          15,
          16,
          17,
          18,
          19,
          20,
          21,
          22,
          23,
          24,
          25,
          26,
          27,
          28,
          29,
          30,
          31,
          32,
          33,
          34,
          35,
          36,
          37,
          38,
          39,
          40,
          41,
          42,
          43,
          44,
          45,
          46,
          47,
          48,
          49,
          50,
          51,
          52,
          53,
          54,
          55,
          56,
          57,
          58,
          59,
          60,
          61,
          62,
          63,
          64,
          65,
          66,
          67,
          68,
          69,
          70,
          71,
          72,
          73,
          74,
          75,
          76,
          77,
          78,
          79,
          80,
          81,
          82,
          83,
          84,
          85,
          86,
          87,
          88,
          89,
          90,
          91,
          92,
          93,
          94,
          95,
          96,
          97,
          98,
          99,
          100,
          101,
          102,
          103,
          104,
          105,
          106,
          107,
          108,
          109,
          110,
          111,
          112,
          113,
          114,
          115,
          116,
          117,
          118,
          119,
          120,
          121,
          122,
          123,
          124,
          125,
          126,
          127,
          128,
          129,
          130,
          131,
          132,
          133,
          134,
          135,
          136,
          137,
          138,
          139,
          140,
          141,
          142,
          143,
          144,
          145,
          146,
          147,
          148,
          149,
          150
        ],
        "AcquisitionTime": [
          "160646.175000",
          "160648.785000",
          "160651.395000",
          "160654.007500",
          "160656.617500",
          "160659.227500",
          "160701.837500",
          "160704.447500",
          "160707.060000",
          "160709.670000",
          "160712.280000",
          "160714.890000",
          "160717.500000",
          "160720.110000",
          "160722.722500",
          "160725.332500",
          "160727.942500",
          "160730.552500",
          "160733.162500",
          "160735.772500",
          "160738.385000",
          "160740.995000",
          "160743.605000",
          "160746.215000",
          "160748.825000",
          "160751.437500",
          "160754.047500",
          "160756.657500",
          "160759.267500",
          "160801.877500",
          "160804.487500",
          "160807.100000",
          "160809.710000",
          "160812.320000",
          "160814.930000",
          "160817.540000",
          "160820.150000",
          "160822.762500",
          "160825.372500",
          "160827.982500",
          "160830.592500",
          "160833.202500",
          "160835.815000",
          "160838.425000",
          "160841.035000",
          "160843.645000",
          "160846.255000",
          "160848.865000",
          "160851.477500",
          "160854.087500",
          "160856.697500",
          "160859.307500",
          "160901.917500",
          "160904.527500",
          "160907.140000",
          "160909.750000",
          "160912.360000",
          "160914.970000",
          "160917.580000",
          "160920.192500",
          "160922.802500",
          "160925.412500",
          "160928.022500",
          "160930.632500",
          "160933.242500",
          "160935.855000",
          "160938.465000",
          "160941.075000",
          "160943.685000",
          "160946.295000",
          "160948.905000",
          "160951.517500",
          "160954.127500",
          "160956.737500",
          "160959.347500",
          "161001.957500",
          "161004.570000",
          "161007.180000",
          "161009.790000",
          "161012.400000",
          "161015.010000",
          "161017.620000",
          "161020.232500",
          "161022.842500",
          "161025.452500",
          "161028.062500",
          "161030.672500",
          "161033.282500",
          "161035.895000",
          "161038.505000",
          "161041.115000",
          "161043.725000",
          "161046.335000",
          "161048.947500",
          "161051.557500",
          "161054.167500",
          "161056.777500",
          "161059.387500",
          "161101.997500",
          "161104.610000",
          "161107.220000",
          "161109.830000",
          "161112.440000",
          "161115.050000",
          "161117.660000",
          "161120.272500",
          "161122.882500",
          "161125.492500",
          "161128.102500",
          "161130.712500",
          "161133.325000",
          "161135.935000",
          "161138.545000",
          "161141.155000",
          "161143.765000",
          "161146.375000",
          "161148.987500",
          "161151.597500",
          "161154.207500",
          "161156.817500",
          "161159.427500",
          "161202.037500",
          "161204.650000",
          "161207.260000",
          "161209.870000",
          "161212.480000",
          "161215.090000",
          "161217.702500",
          "161220.312500",
          "161222.922500",
          "161225.532500",
          "161228.142500",
          "161230.752500",
          "161233.365000",
          "161235.975000",
          "161238.585000",
          "161241.195000",
          "161243.805000",
          "161246.417500",
          "161249.027500",
          "161251.637500",
          "161254.247500",
          "161256.857500",
          "161259.467500",
          "161302.080000",
          "161304.690000",
          "161307.300000",
          "161309.910000",
          "161312.520000",
          "161315.130000"
        ],
        "ContentTime": [
          "160655.921000",
          "160656.421000",
          "160656.921000",
          "160658.921000",
          "160701.421000",
          "160703.921000",
          "160706.921000",
          "160709.421000",
          "160711.921000",
          "160714.421000",
          "160716.921000",
          "160719.921000",
          "160722.421000",
          "160724.921000",
          "160727.421000",
          "160729.921000",
          "160732.921000",
          "160735.421000",
          "160737.921000",
          "160740.421000",
          "160742.921000",
          "160745.921000",
          "160748.421000",
          "160750.921000",
          "160753.421000",
          "160755.921000",
          "160758.921000",
          "160801.421000",
          "160803.921000",
          "160806.421000",
          "160808.921000",
          "160811.921000",
          "160814.421000",
          "160816.921000",
          "160819.421000",
          "160822.421000",
          "160824.921000",
          "160827.421000",
          "160829.921000",
          "160832.421000",
          "160834.921000",
          "160837.921000",
          "160840.421000",
          "160842.921000",
          "160845.421000",
          "160847.921000",
          "160850.921000",
          "160853.421000",
          "160855.921000",
          "160858.421000",
          "160900.921000",
          "160903.921000",
          "160906.421000",
          "160908.921000",
          "160911.421000",
          "160913.921000",
          "160916.921000",
          "160919.421000",
          "160921.921000",
          "160924.421000",
          "160927.421000",
          "160929.921000",
          "160932.421000",
          "160934.921000",
          "160937.421000",
          "160939.921000",
          "160942.921000",
          "160945.421000",
          "160947.921000",
          "160950.421000",
          "160953.421000",
          "160955.921000",
          "160958.421000",
          "161000.921000",
          "161003.421000",
          "161005.921000",
          "161008.921000",
          "161011.421000",
          "161013.921000",
          "161016.421000",
          "161018.921000",
          "161021.921000",
          "161024.421000",
          "161026.921000",
          "161029.421000",
          "161031.921000",
          "161034.921000",
          "161037.421000",
          "161039.921000",
          "161042.421000",
          "161045.421000",
          "161047.921000",
          "161050.421000",
          "161052.921000",
          "161055.421000",
          "161057.921000",
          "161100.921000",
          "161103.421000",
          "161105.921000",
          "161108.421000",
          "161111.421000",
          "161113.921000",
          "161116.421000",
          "161118.921000",
          "161121.421000",
          "161123.921000",
          "161126.921000",
          "161129.421000",
          "161131.921000",
          "161134.421000",
          "161136.921000",
          "161139.921000",
          "161142.421000",
          "161144.921000",
          "161147.421000",
          "161149.921000",
          "161152.921000",
          "161155.421000",
          "161157.921000",
          "161200.421000",
          "161202.921000",
          "161205.921000",
          "161208.421000",
          "161210.921000",
          "161213.421000",
          "161215.921000",
          "161218.921000",
          "161221.421000",
          "161223.921000",
          "161226.421000",
          "161228.921000",
          "161231.921000",
          "161234.421000",
          "161236.921000",
          "161239.421000",
          "161241.921000",
          "161244.921000",
          "161247.421000",
          "161249.921000",
          "161252.421000",
          "161254.921000",
          "161257.921000",
          "161300.421000",
          "161302.921000",
          "161305.421000",
          "161307.921000",
          "161310.921000",
          "161313.421000",
          "161315.921000",
          "161323.281000"
        ],
        "InstanceCreationTime": [
          "160655.921000",
          "160656.421000",
          "160656.921000",
          "160658.921000",
          "160701.421000",
          "160703.921000",
          "160706.921000",
          "160709.421000",
          "160711.921000",
          "160714.421000",
          "160716.921000",
          "160719.921000",
          "160722.421000",
          "160724.921000",
          "160727.421000",
          "160729.921000",
          "160732.921000",
          "160735.421000",
          "160737.921000",
          "160740.421000",
          "160742.921000",
          "160745.921000",
          "160748.421000",
          "160750.921000",
          "160753.421000",
          "160755.921000",
          "160758.921000",
          "160801.421000",
          "160803.921000",
          "160806.421000",
          "160808.921000",
          "160811.921000",
          "160814.421000",
          "160816.921000",
          "160819.421000",
          "160822.421000",
          "160824.921000",
          "160827.421000",
          "160829.921000",
          "160832.421000",
          "160834.921000",
          "160837.921000",
          "160840.421000",
          "160842.921000",
          "160845.421000",
          "160847.921000",
          "160850.921000",
          "160853.421000",
          "160855.921000",
          "160858.421000",
          "160900.921000",
          "160903.921000",
          "160906.421000",
          "160908.921000",
          "160911.421000",
          "160913.921000",
          "160916.921000",
          "160919.421000",
          "160921.921000",
          "160924.421000",
          "160927.421000",
          "160929.921000",
          "160932.421000",
          "160934.921000",
          "160937.421000",
          "160939.921000",
          "160942.921000",
          "160945.421000",
          "160947.921000",
          "160950.421000",
          "160953.421000",
          "160955.921000",
          "160958.421000",
          "161000.921000",
          "161003.421000",
          "161005.921000",
          "161008.921000",
          "161011.421000",
          "161013.921000",
          "161016.421000",
          "161018.921000",
          "161021.921000",
          "161024.421000",
          "161026.921000",
          "161029.421000",
          "161031.921000",
          "161034.921000",
          "161037.421000",
          "161039.921000",
          "161042.421000",
          "161045.421000",
          "161047.921000",
          "161050.421000",
          "161052.921000",
          "161055.421000",
          "161057.921000",
          "161100.921000",
          "161103.421000",
          "161105.921000",
          "161108.421000",
          "161111.421000",
          "161113.921000",
          "161116.421000",
          "161118.921000",
          "161121.421000",
          "161123.921000",
          "161126.921000",
          "161129.421000",
          "161131.921000",
          "161134.421000",
          "161136.921000",
          "161139.921000",
          "161142.421000",
          "161144.921000",
          "161147.421000",
          "161149.921000",
          "161152.921000",
          "161155.421000",
          "161157.921000",
          "161200.421000",
          "161202.921000",
          "161205.921000",
          "161208.421000",
          "161210.921000",
          "161213.421000",
          "161215.921000",
          "161218.921000",
          "161221.421000",
          "161223.921000",
          "161226.421000",
          "161228.921000",
          "161231.921000",
          "161234.421000",
          "161236.921000",
          "161239.421000",
          "161241.921000",
          "161244.921000",
          "161247.421000",
          "161249.921000",
          "161252.421000",
          "161254.921000",
          "161257.921000",
          "161300.421000",
          "161302.921000",
          "161305.421000",
          "161307.921000",
          "161310.921000",
          "161313.421000",
          "161315.921000",
          "161323.281000"
        ],
        "InstanceNumber": [
          1,
          2,
          3,
          4,
          5,
          6,
          7,
          8,
          9,
          10,
          11,
          12,
          13,
          14,
          15,
          16,
          17,
          18,
          19,
          20,
          21,
          22,
          23,
          24,
          25,
          26,
          27,
          28,
          29,
          30,
          31,
          32,
          33,
          34,
          35,
          36,
          37,
          38,
          39,
          40,
          41,
          42,
          43,
          44,
          45,
          46,
          47,
          48,
          49,
          50,
          51,
          52,
          53,
          54,
          55,
          56,
          57,
          58,
          59,
          60,
          61,
          62,
          63,
          64,
          65,
          66,
          67,
          68,
          69,
          70,
          71,
          72,
          73,
          74,
          75,
          76,
          77,
          78,
          79,
          80,
          81,
          82,
          83,
          84,
          85,
          86,
          87,
          88,
          89,
          90,
          91,
          92,
          93,
          94,
          95,
          96,
          97,
          98,
          99,
          100,
          101,
          102,
          103,
          104,
          105,
          106,
          107,
          108,
          109,
          110,
          111,
          112,
          113,
          114,
          115,
          116,
          117,
          118,
          119,
          120,
          121,
          122,
          123,
          124,
          125,
          126,
          127,
          128,
          129,
          130,
          131,
          132,
          133,
          134,
          135,
          136,
          137,
          138,
          139,
          140,
          141,
          142,
          143,
          144,
          145,
          146,
          147,
          148,
          149,
          150
        ],
        "WindowCenter": [
          814.0,
          814.0,
          815.0,
          815.0,
          814.0,
          815.0,
          814.0,
          816.0,
          814.0,
          813.0,
          813.0,
          815.0,
          815.0,
          815.0,
          815.0,
          815.0,
          814.0,
          814.0,
          813.0,
          813.0,
          813.0,
          812.0,
          812.0,
          813.0,
          813.0,
          812.0,
          812.0,
          812.0,
          813.0,
          811.0,
          811.0,
          812.0,
          813.0,
          812.0,
          813.0,
          812.0,
          814.0,
          813.0,
          813.0,
          813.0,
          814.0,
          814.0,
          814.0,
          813.0,
          814.0,
          813.0,
          813.0,
          814.0,
          814.0,
          815.0,
          815.0,
          815.0,
          815.0,
          815.0,
          814.0,
          814.0,
          814.0,
          815.0,
          815.0,
          814.0,
          814.0,
          812.0,
          814.0,
          813.0,
          812.0,
          812.0,
          814.0,
          814.0,
          813.0,
          813.0,
          813.0,
          814.0,
          814.0,
          814.0,
          815.0,
          814.0,
          815.0,
          815.0,
          815.0,
          815.0,
          814.0,
          814.0,
          815.0,
          814.0,
          814.0,
          813.0,
          812.0,
          812.0,
          813.0,
          814.0,
          813.0,
          812.0,
          814.0,
          815.0,
          814.0,
          812.0,
          812.0,
          814.0,
          814.0,
          815.0,
          814.0,
          814.0,
          813.0,
          813.0,
          814.0,
          815.0,
          816.0,
          814.0,
          814.0,
          814.0,
          815.0,
          815.0,
          814.0,
          815.0,
          815.0,
          815.0,
          815.0,
          816.0,
          816.0,
          815.0,
          814.0,
          813.0,
          814.0,
          815.0,
          815.0,
          815.0,
          816.0,
          817.0,
          816.0,
          816.0,
          815.0,
          814.0,
          814.0,
          815.0,
          813.0,
          812.0,
          813.0,
          813.0,
          814.0,
          814.0,
          814.0,
          814.0,
          814.0,
          814.0,
          815.0,
          815.0,
          815.0,
          815.0,
          816.0,
          816.0
        ],
        "WindowWidth": [
          1877.0,
          1877.0,
          1880.0,
          1879.0,
          1878.0,
          1882.0,
          1880.0,
          1883.0,
          1875.0,
          1871.0,
          1874.0,
          1881.0,
          1879.0,
          1879.0,
          1881.0,
          1880.0,
          1878.0,
          1875.0,
          1873.0,
          1875.0,
          1874.0,
          1871.0,
          1871.0,
          1876.0,
          1874.0,
          1869.0,
          1871.0,
          1870.0,
          1874.0,
          1867.0,
          1865.0,
          1869.0,
          1871.0,
          1870.0,
          1873.0,
          1874.0,
          1879.0,
          1875.0,
          1875.0,
          1875.0,
          1878.0,
          1879.0,
          1877.0,
          1875.0,
          1877.0,
          1875.0,
          1874.0,
          1878.0,
          1878.0,
          1880.0,
          1882.0,
          1880.0,
          1880.0,
          1880.0,
          1879.0,
          1877.0,
          1879.0,
          1882.0,
          1881.0,
          1878.0,
          1879.0,
          1871.0,
          1880.0,
          1876.0,
          1872.0,
          1873.0,
          1879.0,
          1877.0,
          1875.0,
          1875.0,
          1874.0,
          1877.0,
          1879.0,
          1880.0,
          1881.0,
          1878.0,
          1881.0,
          1883.0,
          1884.0,
          1880.0,
          1877.0,
          1880.0,
          1881.0,
          1880.0,
          1879.0,
          1876.0,
          1872.0,
          1870.0,
          1876.0,
          1877.0,
          1873.0,
          1871.0,
          1877.0,
          1880.0,
          1876.0,
          1870.0,
          1868.0,
          1879.0,
          1876.0,
          1883.0,
          1878.0,
          1880.0,
          1872.0,
          1874.0,
          1880.0,
          1884.0,
          1887.0,
          1880.0,
          1877.0,
          1880.0,
          1883.0,
          1882.0,
          1879.0,
          1880.0,
          1880.0,
          1882.0,
          1883.0,
          1885.0,
          1887.0,
          1882.0,
          1875.0,
          1875.0,
          1878.0,
          1881.0,
          1880.0,
          1880.0,
          1884.0,
          1887.0,
          1886.0,
          1884.0,
          1879.0,
          1875.0,
          1877.0,
          1883.0,
          1872.0,
          1869.0,
          1872.0,
          1873.0,
          1876.0,
          1875.0,
          1877.0,
          1874.0,
          1875.0,
          1873.0,
          1879.0,
          1879.0,
          1878.0,
          1878.0,
          1882.0,
          1883.0
        ]
      },
      "slices": {}
    }
  },
  "dummy_trs": 0,
  "dvars_nstd": 79.30282249697987,
  "dvars_std": 1.100703087181208,
  "dvars_vstd": 1.0266125883221475,
  "efc": 0.5325894002406498,
  "fber": 444.3814697265625,
  "fd_mean": 0.11483402951469975,
  "fd_num": 20,
  "fd_perc": 13.333333333333334,
  "fwhm_avg": 2.845383173784428,
  "fwhm_x": 2.8096324977912315,
  "fwhm_y": 2.8361989043898275,
  "fwhm_z": 2.890318119172224,
  "gcor": 0.00337693,
  "gsr_x": -0.005752681288868189,
  "gsr_y": 0.0485539473593235,
  "provenance": {
    "md5sum": "cd123f887a20d1028756ee438f11e492",
    "settings": {
      "fd_thres": 0.2,
      "testing": false
    },
    "software": "mriqc",
    "version": "22.0.0rc1",
    "webapi_port": null,
    "webapi_url": "https://mriqc.nimh.nih.gov/api/v1"
  },
  "size_t": 150,
  "size_x": 188,
  "size_y": 188,
  "size_z": 46,
  "snr": 2.439909617490436,
  "spacing_tr": 2.5999999046325684,
  "spacing_x": 1.0957447290420532,
  "spacing_y": 1.0957447290420532,
  "spacing_z": 1.100000023841858,
  "summary_bg_k": 75.82261634080209,
  "summary_bg_mad": 19.204642923904967,
  "summary_bg_mean": 76.34899139404297,
  "summary_bg_median": 44.08000183105469,
  "summary_bg_n": 1133284.0,
  "summary_bg_p05": 29.893333435058594,
