{
  "aor": 0.0006573333333333333,
  "aqi": 0.012645255333333333,
  "bids_meta": {
    "AcquisitionMatrixPE": 188,
    "AcquisitionNumber": 1,
    "AcquisitionTime": "17:02:45.230000",
    "BandwidthPerPixelPhaseEncode": 19.46,
    "BaseResolution": 188,
    "CogAtlasID": "TODO",
    "ConversionSoftware": "dcm2niix",
    "ConversionSoftwareVersion": "v1.0.20180606 GCC4.8.5",
    "DelayTime": 1.2,
    "DerivedVendorReportedEchoSpacing": 0.000820013,
    "DeviceSerialNumber": "18930",
    "DwellTime": 1.9e-06,
    "EchoTime": 0.02,
    "EffectiveEchoSpacing": 0.000273338,
    "FlipAngle": 80,
    "ImageComments": "Unaliased_MB2_PE2",
    "ImageOrientationPatientDICOM": [
      0.999735,
      -0.0174383,
      -0.0150539,
      -0.0126913,
      0.128453,
      -0.991634
    ],
    "ImageType": [
      "ORIGINAL",
      "PRIMARY",
      "M",
      "MB",
      "ND",
      "MOSAIC"
    ],
    "InPlanePhaseEncodingDirectionDICOM": "COL",
    "InstitutionAddress": "Oxfordlaan_55_Maastricht_753AAF_Limburg_NL_6229_EV",
    "InstitutionName": "Scannexus",
    "InstitutionalDepartmentName": "MRI_7T",
    "MRAcquisitionType": "2D",
    "MagneticFieldStrength": 6.98,
    "Manufacturer": "Siemens",
    "ManufacturersModelName": "Investigational_Device_7T",
    "Modality": "MR",
    "MultibandAccelerationFactor": 2,
    "ParallelReductionFactorInPlane": 3,
    "PartialFourier": 0.75,
    "PatientPosition": "HFS",
    "PercentPhaseFOV": 100,
    "PhaseEncodingDirection": "j",
    "PhaseEncodingSteps": 141,
    "PhaseResolution": 1,
    "PixelBandwidth": 1400,
    "ProcedureStepDescription": "FeDem_Faruk",
    "ProtocolName": "cmrr_mbep2d_bold_AP_run11",
    "PulseSequenceDetails": "%CustomerSeq%_cmrr_mbep2d_bold",
    "ReceiveCoilName": "32Ch_Head_7T",
    "ReconMatrixPE": 188,
    "RepetitionTime": 2.6,
    "SAR": 0.10677,
    "ScanOptions": "PFP_FS",
    "ScanningSequence": "EP",
    "SequenceName": "epfid2d1_188",
    "SequenceVariant": "SK_SS",
    "SeriesDescription": "cmrr_mbep2d_bold_AP_run11",
    "SeriesNumber": 24,
    "ShimSetting": [
      38,
      -81,
      367,
      509,
      -111,
      388,
      -130,
      141
    ],
    "SliceThickness": 1.1,
    "SliceTiming": [
      0,
      0.7325,
      0.06,
      0.795,
      0.1225,
      0.855,
      0.1825,
      0.9175,
      0.245,
      0.9775,
      0.305,
      1.04,
      0.3675,
      1.1,
      0.4275,
      1.16,
      0.49,
      1.2225,
      0.55,
      1.2825,
      0.61,
      1.345,
      0.6725,
      0,
      0.7325,
      0.06,
      0.795,
      0.1225,
      0.855,
      0.1825,
      0.9175,
      0.245,
      0.9775,
      0.305,
      1.04,
      0.3675,
      1.1,
      0.4275,
      1.16,
      0.49,
      1.2225,
      0.55,
      1.2825,
      0.61,
      1.345,
      0.6725
    ],
    "SoftwareVersions": "syngo_MR_B17",
    "SpacingBetweenSlices": 1.1,
    "StationName": "MRC18930",
    "TaskName": "auditory",
    "TotalReadoutTime": 0.0511141,
    "TxRefAmp": 240,
    "dataset": "ds001942",
    "dcmmeta_affine": [
      [
        -1.0954539775848389,
        -0.013906460255384445,
        -0.02114875242114067,
        110.03825378417969
      ],
      [
        0.019107934087514877,
        0.14075127243995667,
        -1.0907185077667236,
        31.862977981567383
      ],
      [
        -0.016495225951075554,
        1.0865782499313354,
        0.14101693034172058,
        -120.29054260253906
      ],
      [
        0.0,
        0.0,
        0.0,
        1.0
      ]
    ],
    "dcmmeta_reorient_transform": [
      [
        0.0,
        -1.0,
        0.0,
        187.0
      ],
      [
        1.0,
        0.0,
        0.0,
        0.0
      ],
      [
        0.0,
        0.0,
        1.0,
        0.0
      ],
      [
        0.0,
        0.0,
        0.0,
        1.0
      ]
    ],
    "dcmmeta_shape": [
      188,
      188,
      46,
      150
    ],
    "dcmmeta_slice_dim": 2,
    "dcmmeta_version": 0.6,
    "global": {
      "const": {
        "AcquisitionMatrix": [
          188,
          0,
          0,
          188
        ],
        "AngioFlag": "N",
        "BitsAllocated": 16,
        "BitsStored": 12,
        "Columns": 1316,
        "EchoNumbers": 1,
        "EchoTime": 20.0,
        "EchoTrainLength": 1,
        "FlipAngle": 80.0,
        "HighBit": 11,
        "ImageOrientationPatient": [
          0.99973460762243,
          -0.0174383082265,
          -0.0150538941213,
          -0.0126913317262,
          0.1284526139087,
          -0.991634436715
        ],
        "ImagePositionPatient": [
          -717.4305167741,
          -126.79031083699,
          705.03299846262
        ],
        "ImageType": [
          "ORIGINAL",
          "PRIMARY",
          "M",
          "MB",
          "ND",
          "MOSAIC"
        ],
        "ImagedNucleus": "1H",
        "ImagingFrequency": 297.205633,
        "InPlanePhaseEncodingDirection": "COL",
        "LargestImagePixelValue": 4095,
        "MRAcquisitionType": "2D",
        "MagneticFieldStrength": 6.98,
        "Manufacturer": "SIEMENS",
        "ManufacturerModelName": "Investigational_Device_7T",
        "Modality": "MR",
        "NumberOfAverages": 1.0,
        "NumberOfPhaseEncodingSteps": 141,
        "PercentPhaseFieldOfView": 100.0,
        "PercentSampling": 100.0,
        "PerformedProcedureStepStartTime": "144037.625000",
        "PhotometricInterpretation": "MONOCHROME2",
        "PixelBandwidth": 1400.0,
        "PixelRepresentation": 0,
        "PixelSpacing": [
          1.0957447290421,
          1.0957447290421
        ],
        "ProtocolName": "cmrr_mbep2d_bold_AP_run11",
        "RepetitionTime": 2600.0,
        "Rows": 1316,
        "SAR": 0.10677003968016,
        "SamplesPerPixel": 1,
        "ScanOptions": [
          "PFP",
          "FS"
        ],
        "ScanningSequence": "EP",
        "SequenceName": "epfid2d1_188",
        "SequenceVariant": [
          "SK",
          "SS"
        ],
        "SeriesDescription": "cmrr_mbep2d_bold_AP_run11",
        "SeriesNumber": 24,
        "SeriesTime": "170255.625000",
        "SliceLocation": -49.13065131481,
        "SliceThickness": 1.1000000238419,
        "SmallestImagePixelValue": 0,
        "SoftwareVersions": "syngo MR B17",
        "SpacingBetweenSlices": 1.0999999671667,
        "SpecificCharacterSet": "ISO_IR 100",
        "StudyID": "1",
        "StudyTime": "144037.484000",
        "TransmitCoilName": "32Ch_Head_7T",
        "VariableFlipAngleFlag": "N",
        "WindowCenterWidthExplanation": "Algo1",
        "dBdt": 0.0
      },
      "slices": {}
    },
    "modality": "bold",
    "run_id": 11,
    "session_id": "SES02",
    "subject_id": "S08",
    "task_id": "auditory",
    "time": {
      "samples": {
        "AcquisitionNumber": [
          1,
          2,
          3,
          4,
          5,
          6,
          7,
          8,
          9,
          10,
          11,
          12,
          13,
          14,
          15,
          16,
          17,
          18,
          19,
          20,
          21,
          22,
          23,
          24,
          25,
          26,
          27,
          28,
          29,
          30,
          31,
          32,
          33,
          34,
          35,
          36,
          37,
          38,
          39,
          40,
          41,
          42,
          43,
          44,
          45,
          46,
          47,
          48,
          49,
          50,
          51,
          52,
          53,
          54,
          55,
          56,
          57,
          58,
          59,
          60,
          61,
          62,
          63,
          64,
          65,
          66,
          67,
          68,
          69,
          70,
          71,
          72,
          73,
          74,
          75,
          76,
          77,
          78,
          79,
          80,
          81,
          82,
          83,
          84,
          85,
          86,
          87,
          88,
          89,
          90,
          91,
          92,
          93,
          94,
          95,
          96,
          97,
          98,
          99,
          100,
          101,
          102,
          103,
          104,
          105,
          106,
          107,
          108,
          109,
          110,
          111,
          112,
          113,
          114,
          115,
          116,
          117,
          118,
          119,
          120,
          121,
          122,
          123,
          124,
          125,
          126,
          127,
          128,
          129,
          130,
          131,
          132,
          133,
          134,
          135,
          136,
          137,
          138,
          139,
          140,
          141,
          142,
          143,
          144,
          145,
          146,
          147,
          148,
          149,
          150
        ],
        "AcquisitionTime": [
          "170245.230000",
          "170247.840000",
          "170250.450000",
          "170253.062500",
          "170255.672500",
          "170258.282500",
          "170300.892500",
          "170303.502500",
          "170306.112500",
          "170308.725000",
          "170311.335000",
          "170313.945000",
          "170316.555000",
          "170319.165000",
          "170321.777500",
          "170324.387500",
          "170326.997500",
          "170329.607500",
          "170332.217500",
          "170334.827500",
          "170337.440000",
          "170340.050000",
          "170342.660000",
          "170345.270000",
          "170347.880000",
          "170350.490000",
          "170353.102500",
          "170355.712500",
          "170358.322500",
          "170400.932500",
          "170403.542500",
          "170406.155000",
          "170408.765000",
          "170411.375000",
          "170413.985000",
          "170416.595000",
          "170419.205000",
          "170421.817500",
          "170424.427500",
          "170427.037500",
          "170429.647500",
          "170432.257500",
          "170434.867500",
          "170437.480000",
          "170440.090000",
          "170442.700000",
          "170445.310000",
          "170447.920000",
          "170450.532500",
          "170453.142500",
          "170455.752500",
          "170458.362500",
          "170500.972500",
          "170503.582500",
          "170506.195000",
          "170508.805000",
          "170511.415000",
          "170514.025000",
          "170516.635000",
          "170519.245000",
          "170521.857500",
          "170524.467500",
          "170527.077500",
          "170529.687500",
          "170532.297500",
          "170534.910000",
          "170537.520000",
          "170540.130000",
          "170542.740000",
          "170545.350000",
          "170547.960000",
          "170550.572500",
          "170553.182500",
          "170555.792500",
          "170558.402500",
          "170601.012500",
          "170603.622500",
          "170606.235000",
          "170608.845000",
          "170611.455000",
          "170614.065000",
          "170616.675000",
          "170619.287500",
          "170621.897500",
          "170624.507500",
          "170627.117500",
          "170629.727500",
          "170632.337500",
          "170634.950000",
          "170637.560000",
          "170640.170000",
          "170642.780000",
          "170645.390000",
          "170648.000000",
          "170650.612500",
          "170653.222500",
          "170655.832500",
          "170658.442500",
          "170701.052500",
          "170703.665000",
          "170706.275000",
          "170708.885000",
          "170711.495000",
          "170714.105000",
          "170716.715000",
          "170719.327500",
          "170721.937500",
          "170724.547500",
          "170727.157500",
          "170729.767500",
          "170732.377500",
          "170734.990000",
          "170737.600000",
          "170740.210000",
          "170742.820000",
          "170745.430000",
          "170748.042500",
          "170750.652500",
          "170753.262500",
          "170755.872500",
          "170758.482500",
          "170801.092500",
          "170803.705000",
          "170806.315000",
          "170808.925000",
          "170811.535000",
          "170814.145000",
          "170816.755000",
          "170819.367500",
          "170821.977500",
          "170824.587500",
          "170827.197500",
          "170829.807500",
          "170832.420000",
          "170835.030000",
          "170837.640000",
          "170840.250000",
          "170842.860000",
          "170845.470000",
          "170848.082500",
          "170850.692500",
          "170853.302500",
          "170855.912500",
          "170858.522500",
          "170901.132500",
          "170903.745000",
          "170906.355000",
          "170908.965000",
          "170911.575000",
          "170914.185000"
        ],
        "ContentTime": [
          "170255.625000",
          "170255.625000",
          "170256.625000",
          "170258.625000",
          "170301.125000",
          "170303.625000",
          "170306.625000",
          "170309.125000",
          "170311.625000",
          "170314.125000",
          "170316.625000",
          "170319.625000",
          "170322.125000",
          "170324.625000",
          "170327.125000",
          "170329.625000",
          "170332.625000",
          "170335.125000",
          "170337.625000",
          "170340.125000",
          "170342.625000",
          "170345.625000",
          "170348.125000",
          "170350.625000",
          "170353.125000",
          "170355.625000",
          "170358.625000",
          "170401.125000",
          "170403.625000",
          "170406.125000",
          "170408.625000",
          "170411.625000",
          "170414.125000",
          "170416.625000",
          "170419.125000",
          "170421.625000",
          "170424.625000",
          "170427.125000",
          "170429.625000",
          "170432.125000",
          "170434.625000",
          "170437.625000",
          "170440.125000",
          "170442.625000",
          "170445.125000",
          "170447.625000",
          "170450.625000",
          "170453.125000",
          "170455.625000",
          "170458.125000",
          "170501.125000",
          "170503.625000",
          "170506.125000",
          "170508.625000",
          "170511.125000",
          "170513.625000",
          "170516.625000",
          "170519.125000",
          "170521.625000",
          "170524.125000",
          "170526.625000",
          "170529.625000",
          "170532.125000",
          "170534.625000",
          "170537.125000",
          "170539.625000",
          "170542.625000",
          "170545.125000",
          "170547.625000",
          "170550.125000",
          "170552.625000",
          "170555.625000",
          "170558.125000",
          "170600.625000",
          "170603.125000",
          "170605.625000",
          "170608.625000",
          "170611.125000",
          "170613.625000",
          "170616.125000",
          "170618.625000",
          "170621.625000",
          "170624.125000",
          "170626.625000",
          "170629.125000",
          "170631.625000",
          "170634.625000",
          "170637.125000",
          "170639.625000",
          "170642.125000",
          "170645.125000",
          "170647.625000",
          "170650.125000",
          "170652.625000",
          "170655.125000",
          "170657.625000",
          "170700.625000",
          "170703.140000",
          "170705.625000",
          "170708.125000",
          "170710.625000",
          "170713.625000",
          "170716.125000",
          "170718.625000",
          "170721.125000",
          "170723.625000",
          "170726.625000",
          "170729.125000",
          "170731.625000",
          "170734.125000",
          "170736.625000",
          "170739.625000",
          "170742.125000",
          "170744.625000",
          "170747.125000",
          "170749.625000",
          "170752.625000",
          "170755.125000",
          "170757.625000",
          "170800.125000",
          "170802.625000",
          "170805.625000",
          "170808.125000",
          "170810.625000",
          "170813.125000",
          "170815.625000",
          "170818.625000",
          "170821.125000",
          "170823.640000",
          "170826.125000",
          "170828.625000",
          "170831.625000",
          "170834.125000",
          "170836.625000",
          "170839.125000",
          "170841.625000",
          "170844.625000",
          "170847.125000",
          "170849.625000",
          "170852.125000",
          "170854.625000",
          "170857.625000",
          "170900.125000",
          "170902.625000",
          "170905.125000",
          "170907.625000",
          "170910.625000",
          "170913.125000",
          "170915.625000",
          "170922.984000"
        ],
        "InstanceCreationTime": [
          "170255.625000",
          "170255.625000",
          "170256.625000",
          "170258.625000",
          "170301.125000",
          "170303.625000",
          "170306.625000",
          "170309.125000",
          "170311.625000",
          "170314.125000",
          "170316.625000",
          "170319.625000",
          "170322.125000",
          "170324.625000",
          "170327.125000",
          "170329.625000",
          "170332.625000",
          "170335.125000",
          "170337.625000",
          "170340.125000",
          "170342.625000",
          "170345.625000",
          "170348.125000",
          "170350.625000",
          "170353.125000",
          "170355.625000",
          "170358.625000",
          "170401.125000",
          "170403.625000",
          "170406.125000",
          "170408.625000",
          "170411.625000",
          "170414.125000",
          "170416.625000",
          "170419.125000",
          "170421.625000",
          "170424.625000",
          "170427.125000",
          "170429.625000",
          "170432.125000",
          "170434.625000",
          "170437.625000",
          "170440.125000",
          "170442.625000",
          "170445.125000",
          "170447.625000",
          "170450.625000",
          "170453.125000",
          "170455.625000",
          "170458.125000",
          "170501.125000",
          "170503.625000",
          "170506.125000",
          "170508.625000",
          "170511.125000",
          "170513.625000",
          "170516.625000",
          "170519.125000",
          "170521.625000",
          "170524.125000",
          "170526.625000",
          "170529.625000",
          "170532.125000",
          "170534.625000",
          "170537.125000",
          "170539.625000",
          "170542.625000",
          "170545.125000",
          "170547.625000",
          "170550.125000",
          "170552.625000",
          "170555.625000",
          "170558.125000",
          "170600.625000",
          "170603.125000",
          "170605.625000",
          "170608.625000",
          "170611.125000",
          "170613.625000",
          "170616.125000",
          "170618.625000",
          "170621.625000",
          "170624.125000",
          "170626.625000",
          "170629.125000",
          "170631.625000",
          "170634.625000",
          "170637.125000",
          "170639.625000",
          "170642.125000",
          "170645.125000",
          "170647.625000",
          "170650.125000",
          "170652.625000",
          "170655.125000",
          "170657.625000",
          "170700.625000",
          "170703.140000",
          "170705.625000",
          "170708.125000",
          "170710.625000",
          "170713.625000",
          "170716.125000",
          "170718.625000",
          "170721.125000",
          "170723.625000",
          "170726.625000",
          "170729.125000",
          "170731.625000",
          "170734.125000",
          "170736.625000",
          "170739.625000",
          "170742.125000",
          "170744.625000",
          "170747.125000",
          "170749.625000",
          "170752.625000",
          "170755.125000",
          "170757.625000",
          "170800.125000",
          "170802.625000",
          "170805.625000",
          "170808.125000",
          "170810.625000",
          "170813.125000",
          "170815.625000",
          "170818.625000",
          "170821.125000",
          "170823.640000",
          "170826.125000",
          "170828.625000",
          "170831.625000",
          "170834.125000",
          "170836.625000",
          "170839.125000",
          "170841.625000",
          "170844.625000",
          "170847.125000",
          "170849.625000",
          "170852.125000",
          "170854.625000",
          "170857.625000",
          "170900.125000",
          "170902.625000",
          "170905.125000",
          "170907.625000",
          "170910.625000",
          "170913.125000",
          "170915.625000",
          "170922.984000"
        ],
        "InstanceNumber": [
          1,
          2,
          3,
          4,
          5,
          6,
          7,
          8,
          9,
          10,
          11,
          12,
          13,
          14,
          15,
          16,
          17,
          18,
          19,
          20,
          21,
          22,
          23,
          24,
          25,
          26,
          27,
          28,
          29,
          30,
          31,
          32,
          33,
          34,
          35,
          36,
          37,
          38,
          39,
          40,
          41,
          42,
          43,
          44,
          45,
          46,
          47,
          48,
          49,
          50,
          51,
          52,
          53,
          54,
          55,
          56,
          57,
          58,
          59,
          60,
          61,
          62,
          63,
          64,
          65,
          66,
          67,
          68,
          69,
          70,
          71,
          72,
          73,
          74,
          75,
          76,
          77,
          78,
          79,
          80,
          81,
          82,
          83,
          84,
          85,
          86,
          87,
          88,
          89,
          90,
          91,
          92,
          93,
          94,
          95,
          96,
          97,
          98,
          99,
          100,
          101,
          102,
          103,
          104,
          105,
          106,
          107,
          108,
          109,
          110,
          111,
          112,
          113,
          114,
          115,
          116,
          117,
          118,
          119,
          120,
          121,
          122,
          123,
          124,
          125,
          126,
          127,
          128,
          129,
          130,
          131,
          132,
          133,
          134,
          135,
          136,
          137,
          138,
          139,
          140,
          141,
          142,
          143,
          144,
          145,
          146,
          147,
          148,
          149,
          150
        ],
        "WindowCenter": [
          826.0,
          825.0,
          826.0,
          824.0,
          823.0,
          824.0,
          824.0,
          824.0,
          824.0,
          824.0,
          824.0,
          823.0,
          823.0,
          823.0,
          824.0,
          823.0,
          823.0,
          823.0,
          824.0,
          824.0,
          823.0,
          824.0,
          824.0,
          824.0,
          823.0,
          823.0,
          824.0,
          823.0,
          823.0,
          823.0,
          823.0,
          823.0,
          823.0,
          822.0,
          823.0,
          823.0,
          823.0,
          823.0,
          824.0,
          824.0,
          824.0,
          823.0,
          822.0,
          822.0,
          822.0,
          823.0,
          822.0,
          824.0,
          823.0,
          823.0,
          823.0,
          823.0,
          824.0,
          824.0,
          824.0,
          824.0,
          824.0,
          825.0,
          825.0,
          825.0,
          824.0,
          824.0,
          824.0,
          824.0,
          824.0,
          825.0,
          825.0,
          824.0,
          824.0,
          825.0,
          825.0,
          824.0,
          824.0,
          826.0,
          826.0,
          826.0,
          825.0,
          826.0,
          825.0,
          825.0,
          824.0,
          826.0,
          827.0,
          827.0,
          826.0,
          826.0,
          825.0,
          825.0,
          826.0,
          825.0,
          826.0,
          826.0,
          826.0,
          826.0,
          826.0,
          826.0,
          826.0,
          825.0,
          826.0,
          825.0,
          825.0,
          826.0,
          826.0,
          825.0,
          824.0,
          824.0,
          826.0,
          825.0,
          825.0,
          824.0,
          825.0,
          825.0,
          826.0,
          824.0,
          824.0,
          825.0,
          825.0,
          825.0,
          826.0,
          824.0,
          824.0,
          824.0,
          824.0,
          824.0,
          823.0,
          823.0,
          824.0,
          824.0,
          823.0,
          823.0,
          823.0,
          824.0,
          824.0,
          824.0,
          824.0,
          825.0,
          825.0,
          825.0,
          824.0,
          825.0,
          823.0,
          823.0,
          825.0,
          824.0,
          824.0,
          824.0,
          825.0,
          824.0,
          824.0,
          824.0
        ],
        "WindowWidth": [
          1919.0,
          1921.0,
          1922.0,
          1912.0,
          1907.0,
          1912.0,
          1915.0,
          1912.0,
          1914.0,
          1912.0,
          1910.0,
          1910.0,
          1906.0,
          1909.0,
          1911.0,
          1908.0,
          1908.0,
          1908.0,
          1912.0,
          1913.0,
          1910.0,
          1911.0,
          1913.0,
          1911.0,
          1909.0,
          1908.0,
          1911.0,
          1910.0,
          1909.0,
          1909.0,
          1907.0,
          1908.0,
          1909.0,
          1906.0,
          1907.0,
          1909.0,
          1910.0,
          1909.0,
          1911.0,
          1912.0,
          1914.0,
          1908.0,
          1902.0,
          1903.0,
          1906.0,
          1907.0,
          1907.0,
          1914.0,
          1909.0,
          1908.0,
          1908.0,
          1910.0,
          1910.0,
          1911.0,
          1912.0,
          1914.0,
          1915.0,
          1917.0,
          1917.0,
          1917.0,
          1915.0,
          1913.0,
          1911.0,
          1912.0,
          1911.0,
          1915.0,
          1915.0,
          1915.0,
          1913.0,
          1917.0,
          1915.0,
          1913.0,
          1913.0,
          1920.0,
          1921.0,
          1921.0,
          1920.0,
          1921.0,
          1916.0,
          1915.0,
          1913.0,
          1920.0,
          1923.0,
          1922.0,
          1918.0,
          1921.0,
          1916.0,
          1915.0,
          1918.0,
          1914.0,
          1920.0,
          1921.0,
          1921.0,
          1917.0,
          1921.0,
          1920.0,
          1919.0,
          1917.0,
          1917.0,
          1917.0,
          1917.0,
          1921.0,
          1920.0,
          1915.0,
          1911.0,
          1914.0,
          1919.0,
          1915.0,
          1915.0,
          1913.0,
          1916.0,
          1919.0,
          1921.0,
          1914.0,
          1911.0,
          1915.0,
          1914.0,
          1916.0,
          1918.0,
          1912.0,
          1912.0,
          1914.0,
          1912.0,
          1912.0,
          1909.0,
          1910.0,
          1911.0,
          1913.0,
          1909.0,
          1908.0,
          1908.0,
          1911.0,
          1913.0,
          1913.0,
          1914.0,
          1917.0,
          1915.0,
          1917.0,
          1913.0,
          1915.0,
          1910.0,
          1911.0,
          1918.0,
          1914.0,
          1915.0,
          1915.0,
          1917.0,
          1913.0,
          1913.0,
          1912.0
        ]
      },
      "slices": {}
    }
  },
  "dummy_trs": 0,
  "dvars_nstd": 75.64853939624165,
  "dvars_std": 1.0861876710067118,
  "dvars_vstd": 1.018894679194631,
  "efc": 0.5328749429392342,
  "fber": 422.0182189941406,
  "fd_mean": 0.06001786346965281,
  "fd_num": 5,
  "fd_perc": 3.3333333333333335,
  "fwhm_avg": 2.921856369005353,
  "fwhm_x": 2.8770569608453123,
  "fwhm_y": 2.91953948324877,
  "fwhm_z": 2.9689726629219777,
  "gcor": 0.00430361,
  "gsr_x": -0.005364733282476664,
  "gsr_y": 0.05204783007502556,
  "provenance": {
    "md5sum": "25cdf5b9142e612fc32f39f9d2722f3f",
    "settings": {
      "fd_thres": 0.2,
      "testing": false
    },
    "software": "mriqc",
    "version": "22.0.6",
    "webapi_port": null,
    "webapi_url": "https://mriqc.nimh.nih.gov/api/v1"
  },
  "size_t": 150,
  "size_x": 188,
  "size_y": 188,
  "size_z": 46,
  "snr": 2.3127470109889425,
  "spacing_tr": 2.5999999046325684,
  "spacing_x": 1.0957447290420532,
  "spacing_y": 1.0957447290420532,
  "spacing_z": 1.100000023841858,
  "summary_bg_k": 76.96254496553802,
  "summary_bg_mad": 20.904689018657535,
  "summary_bg_mean": 81.56864929199219,
  "summary_bg_median": 45.72666931152344,
  "summary_bg_n": 1133243.0,
  "summary_bg_p05": 30.233333587646484,
