{
  "aor": 0.0007870000000000002,
  "aqi": 0.016140054,
  "bids_meta": {
    "AcquisitionMatrixPE": 188,
    "AcquisitionNumber": 1,
    "AcquisitionTime": "16:22:0.182500",
    "BandwidthPerPixelPhaseEncode": 19.46,
    "BaseResolution": 188,
    "CogAtlasID": "TODO",
    "ConversionSoftware": "dcm2niix",
    "ConversionSoftwareVersion": "v1.0.20180606 GCC4.8.5",
    "DelayTime": 1.2,
    "DerivedVendorReportedEchoSpacing": 0.000820013,
    "DeviceSerialNumber": "18930",
    "DwellTime": 1.9e-06,
    "EchoTime": 0.02,
    "EffectiveEchoSpacing": 0.000273338,
    "FlipAngle": 80,
    "ImageComments": "Unaliased_MB2_PE2",
    "ImageOrientationPatientDICOM": [
      0.999735,
      -0.0174383,
      -0.0150539,
      -0.0126913,
      0.128453,
      -0.991634
    ],
    "ImageType": [
      "ORIGINAL",
      "PRIMARY",
      "M",
      "MB",
      "ND",
      "MOSAIC"
    ],
    "InPlanePhaseEncodingDirectionDICOM": "COL",
    "InstitutionAddress": "Oxfordlaan_55_Maastricht_753AAF_Limburg_NL_6229_EV",
    "InstitutionName": "Scannexus",
    "InstitutionalDepartmentName": "MRI_7T",
    "MRAcquisitionType": "2D",
    "MagneticFieldStrength": 6.98,
    "Manufacturer": "Siemens",
    "ManufacturersModelName": "Investigational_Device_7T",
    "Modality": "MR",
    "MultibandAccelerationFactor": 2,
    "ParallelReductionFactorInPlane": 3,
    "PartialFourier": 0.75,
    "PatientPosition": "HFS",
    "PercentPhaseFOV": 100,
    "PhaseEncodingDirection": "j",
    "PhaseEncodingSteps": 141,
    "PhaseResolution": 1,
    "PixelBandwidth": 1400,
    "ProcedureStepDescription": "FeDem_Faruk",
    "ProtocolName": "cmrr_mbep2d_bold_AP_run6",
    "PulseSequenceDetails": "%CustomerSeq%_cmrr_mbep2d_bold",
    "ReceiveCoilName": "32Ch_Head_7T",
    "ReconMatrixPE": 188,
    "RepetitionTime": 2.6,
    "SAR": 0.106708,
    "ScanOptions": "PFP_FS",
    "ScanningSequence": "EP",
    "SequenceName": "epfid2d1_188",
    "SequenceVariant": "SK_SS",
    "SeriesDescription": "cmrr_mbep2d_bold_AP_run6",
    "SeriesNumber": 17,
    "ShimSetting": [
      38,
      -81,
      367,
      509,
      -111,
      388,
      -130,
      141
    ],
    "SliceThickness": 1.1,
    "SliceTiming": [
      0,
      0.7325,
      0.06,
      0.795,
      0.1225,
      0.855,
      0.1825,
      0.915,
      0.245,
      0.9775,
      0.305,
      1.0375,
      0.365,
      1.1,
      0.4275,
      1.16,
      0.4875,
      1.2225,
      0.55,
      1.2825,
      0.61,
      1.345,
      0.6725,
      0,
      0.7325,
      0.06,
      0.795,
      0.1225,
      0.855,
      0.1825,
      0.915,
      0.245,
      0.9775,
      0.305,
      1.0375,
      0.365,
      1.1,
      0.4275,
      1.16,
      0.4875,
      1.2225,
      0.55,
      1.2825,
      0.61,
      1.345,
      0.6725
    ],
    "SoftwareVersions": "syngo_MR_B17",
    "SpacingBetweenSlices": 1.1,
    "StationName": "MRC18930",
    "TaskName": "auditory",
    "TotalReadoutTime": 0.0511141,
    "TxRefAmp": 240,
    "dataset": "ds001942",
    "dcmmeta_affine": [
      [
        -1.0954539775848389,
        -0.013906460255384445,
        -0.02114875242114067,
        110.03825378417969
      ],
      [
        0.019107934087514877,
        0.14075127243995667,
        -1.0907185077667236,
        31.862977981567383
      ],
      [
        -0.016495225951075554,
        1.0865782499313354,
        0.14101693034172058,
        -120.29054260253906
      ],
      [
        0.0,
        0.0,
        0.0,
        1.0
      ]
    ],
    "dcmmeta_reorient_transform": [
      [
        0.0,
        -1.0,
        0.0,
        187.0
      ],
      [
        1.0,
        0.0,
        0.0,
        0.0
      ],
      [
        0.0,
        0.0,
        1.0,
        0.0
      ],
      [
        0.0,
        0.0,
        0.0,
        1.0
      ]
    ],
    "dcmmeta_shape": [
      188,
      188,
      46,
      150
    ],
    "dcmmeta_slice_dim": 2,
    "dcmmeta_version": 0.6,
    "global": {
      "const": {
        "AcquisitionMatrix": [
          188,
          0,
          0,
          188
        ],
        "AngioFlag": "N",
        "BitsAllocated": 16,
        "BitsStored": 12,
        "Columns": 1316,
        "EchoNumbers": 1,
        "EchoTime": 20.0,
        "EchoTrainLength": 1,
        "FlipAngle": 80.0,
        "HighBit": 11,
        "ImageOrientationPatient": [
          0.99973460762243,
          -0.0174383082265,
          -0.0150538941213,
          -0.0126913317262,
          0.1284526139087,
          -0.991634436715
        ],
        "ImagePositionPatient": [
          -717.4305167741,
          -126.79031083699,
          705.03299846262
        ],
        "ImageType": [
          "ORIGINAL",
          "PRIMARY",
          "M",
          "MB",
          "ND",
          "MOSAIC"
        ],
        "ImagedNucleus": "1H",
        "ImagingFrequency": 297.205611,
        "InPlanePhaseEncodingDirection": "COL",
        "LargestImagePixelValue": 4095,
        "MRAcquisitionType": "2D",
        "MagneticFieldStrength": 6.98,
        "Manufacturer": "SIEMENS",
        "ManufacturerModelName": "Investigational_Device_7T",
        "Modality": "MR",
        "NumberOfAverages": 1.0,
        "NumberOfPhaseEncodingSteps": 141,
        "PercentPhaseFieldOfView": 100.0,
        "PercentSampling": 100.0,
        "PerformedProcedureStepStartTime": "144037.625000",
        "PhotometricInterpretation": "MONOCHROME2",
        "PixelBandwidth": 1400.0,
        "PixelRepresentation": 0,
        "PixelSpacing": [
          1.0957447290421,
          1.0957447290421
        ],
        "ProtocolName": "cmrr_mbep2d_bold_AP_run6",
        "RepetitionTime": 2600.0,
        "Rows": 1316,
        "SAR": 0.10670777046732,
        "SamplesPerPixel": 1,
        "ScanOptions": [
          "PFP",
          "FS"
        ],
        "ScanningSequence": "EP",
        "SequenceName": "epfid2d1_188",
        "SequenceVariant": [
          "SK",
          "SS"
        ],
        "SeriesDescription": "cmrr_mbep2d_bold_AP_run6",
        "SeriesNumber": 17,
        "SeriesTime": "162209.796000",
        "SliceLocation": -49.13065131481,
        "SliceThickness": 1.1000000238419,
        "SmallestImagePixelValue": 0,
        "SoftwareVersions": "syngo MR B17",
        "SpacingBetweenSlices": 1.0999999671667,
        "SpecificCharacterSet": "ISO_IR 100",
        "StudyID": "1",
        "StudyTime": "144037.484000",
        "TransmitCoilName": "32Ch_Head_7T",
        "VariableFlipAngleFlag": "N",
        "WindowCenterWidthExplanation": "Algo1",
        "dBdt": 0.0
      },
      "slices": {}
    },
    "modality": "bold",
    "run_id": 6,
    "session_id": "SES02",
    "subject_id": "S08",
    "task_id": "auditory",
    "time": {
      "samples": {
        "AcquisitionNumber": [
          1,
          2,
          3,
          4,
          5,
          6,
          7,
          8,
          9,
          10,
          11,
          12,
          13,
          14,
          15,
          16,
          17,
          18,
          19,
          20,
          21,
          22,
          23,
          24,
          25,
          26,
          27,
          28,
          29,
          30,
          31,
          32,
          33,
          34,
          35,
          36,
          37,
          38,
          39,
          40,
          41,
          42,
          43,
          44,
          45,
          46,
          47,
          48,
          49,
          50,
          51,
          52,
          53,
          54,
          55,
          56,
          57,
          58,
          59,
          60,
          61,
          62,
          63,
          64,
          65,
          66,
          67,
          68,
          69,
          70,
          71,
          72,
          73,
          74,
          75,
          76,
          77,
          78,
          79,
          80,
          81,
          82,
          83,
          84,
          85,
          86,
          87,
          88,
          89,
          90,
          91,
          92,
          93,
          94,
          95,
          96,
          97,
          98,
          99,
          100,
          101,
          102,
          103,
          104,
          105,
          106,
          107,
          108,
          109,
          110,
          111,
          112,
          113,
          114,
          115,
          116,
          117,
          118,
          119,
          120,
          121,
          122,
          123,
          124,
          125,
          126,
          127,
          128,
          129,
          130,
          131,
          132,
          133,
          134,
          135,
          136,
          137,
          138,
          139,
          140,
          141,
          142,
          143,
          144,
          145,
          146,
          147,
          148,
          149,
          150
        ],
        "AcquisitionTime": [
          "162200.182500",
          "162202.792500",
          "162205.402500",
          "162208.012500",
          "162210.622500",
          "162213.235000",
          "162215.845000",
          "162218.455000",
          "162221.065000",
          "162223.675000",
          "162226.287500",
          "162228.897500",
          "162231.507500",
          "162234.117500",
          "162236.727500",
          "162239.337500",
          "162241.950000",
          "162244.560000",
          "162247.170000",
          "162249.780000",
          "162252.390000",
          "162255.000000",
          "162257.612500",
          "162300.222500",
          "162302.832500",
          "162305.442500",
          "162308.052500",
          "162310.665000",
          "162313.275000",
          "162315.885000",
          "162318.495000",
          "162321.105000",
          "162323.715000",
          "162326.327500",
          "162328.937500",
          "162331.547500",
          "162334.157500",
          "162336.767500",
          "162339.380000",
          "162341.990000",
          "162344.600000",
          "162347.210000",
          "162349.820000",
          "162352.430000",
          "162355.042500",
          "162357.652500",
          "162400.262500",
          "162402.872500",
          "162405.482500",
          "162408.092500",
          "162410.705000",
          "162413.315000",
          "162415.925000",
          "162418.535000",
          "162421.145000",
          "162423.757500",
          "162426.367500",
          "162428.977500",
          "162431.587500",
          "162434.197500",
          "162436.807500",
          "162439.420000",
          "162442.030000",
          "162444.640000",
          "162447.250000",
          "162449.860000",
          "162452.470000",
          "162455.082500",
          "162457.692500",
          "162500.302500",
          "162502.912500",
          "162505.522500",
          "162508.135000",
          "162510.745000",
          "162513.355000",
          "162515.965000",
          "162518.575000",
          "162521.185000",
          "162523.797500",
          "162526.407500",
          "162529.017500",
          "162531.627500",
          "162534.237500",
          "162536.847500",
          "162539.460000",
          "162542.070000",
          "162544.680000",
          "162547.290000",
          "162549.900000",
          "162552.512500",
          "162555.122500",
          "162557.732500",
          "162600.342500",
          "162602.952500",
          "162605.562500",
          "162608.175000",
          "162610.785000",
          "162613.395000",
          "162616.005000",
          "162618.615000",
          "162621.225000",
          "162623.837500",
          "162626.447500",
          "162629.057500",
          "162631.667500",
          "162634.277500",
          "162636.890000",
          "162639.500000",
          "162642.110000",
          "162644.720000",
          "162647.330000",
          "162649.940000",
          "162652.552500",
          "162655.162500",
          "162657.772500",
          "162700.382500",
          "162702.992500",
          "162705.602500",
          "162708.215000",
          "162710.825000",
          "162713.435000",
          "162716.045000",
          "162718.655000",
          "162721.267500",
          "162723.877500",
          "162726.487500",
          "162729.097500",
          "162731.707500",
          "162734.317500",
          "162736.930000",
          "162739.540000",
          "162742.150000",
          "162744.760000",
          "162747.370000",
          "162749.980000",
          "162752.592500",
          "162755.202500",
          "162757.812500",
          "162800.422500",
          "162803.032500",
          "162805.645000",
          "162808.255000",
          "162810.865000",
          "162813.475000",
          "162816.085000",
          "162818.695000",
          "162821.307500",
          "162823.917500",
          "162826.527500",
          "162829.137500"
        ],
        "ContentTime": [
          "162209.812000",
          "162210.796000",
          "162210.812000",
          "162212.796000",
          "162215.296000",
          "162217.796000",
          "162220.796000",
          "162223.296000",
          "162225.796000",
          "162228.296000",
          "162231.296000",
          "162233.796000",
          "162236.296000",
          "162238.796000",
          "162241.296000",
          "162243.796000",
          "162246.796000",
          "162249.296000",
          "162251.796000",
          "162254.296000",
          "162257.296000",
          "162259.796000",
          "162302.296000",
          "162304.796000",
          "162307.296000",
          "162310.296000",
          "162312.796000",
          "162315.296000",
          "162317.796000",
          "162320.296000",
          "162323.296000",
          "162325.796000",
          "162328.312000",
          "162330.796000",
          "162333.296000",
          "162335.796000",
          "162338.796000",
          "162341.296000",
          "162343.796000",
          "162346.296000",
          "162349.296000",
          "162351.796000",
          "162354.296000",
          "162356.796000",
          "162359.296000",
          "162401.796000",
          "162404.796000",
          "162407.296000",
          "162409.796000",
          "162412.296000",
          "162415.296000",
          "162417.796000",
          "162420.296000",
          "162422.796000",
          "162425.296000",
          "162427.796000",
          "162430.796000",
          "162433.296000",
          "162435.796000",
          "162438.296000",
          "162441.296000",
          "162443.796000",
          "162446.296000",
          "162448.796000",
          "162451.296000",
          "162453.796000",
          "162456.796000",
          "162459.296000",
          "162501.796000",
          "162504.296000",
          "162507.296000",
          "162509.796000",
          "162512.296000",
          "162514.796000",
          "162517.296000",
          "162520.296000",
          "162522.796000",
          "162525.296000",
          "162527.796000",
          "162530.296000",
          "162533.296000",
          "162535.796000",
          "162538.296000",
          "162540.796000",
          "162543.296000",
          "162546.296000",
          "162548.796000",
          "162551.296000",
          "162553.796000",
          "162556.296000",
          "162559.296000",
          "162601.796000",
          "162604.296000",
          "162606.796000",
          "162609.296000",
          "162612.296000",
          "162614.796000",
          "162617.296000",
          "162619.796000",
          "162622.296000",
          "162625.296000",
          "162627.796000",
          "162630.296000",
          "162632.796000",
          "162635.296000",
          "162638.296000",
          "162640.796000",
          "162643.296000",
          "162645.796000",
          "162648.296000",
          "162651.296000",
          "162653.796000",
          "162656.296000",
          "162658.796000",
          "162701.296000",
          "162704.296000",
          "162706.796000",
          "162709.296000",
          "162711.796000",
          "162714.296000",
          "162717.296000",
          "162719.796000",
          "162722.296000",
          "162724.796000",
          "162727.296000",
          "162730.296000",
          "162732.796000",
          "162735.296000",
          "162737.796000",
          "162740.296000",
          "162743.296000",
          "162745.796000",
          "162748.296000",
          "162750.796000",
          "162753.296000",
          "162755.796000",
          "162758.796000",
          "162801.296000",
          "162803.796000",
          "162806.296000",
          "162809.296000",
          "162811.796000",
          "162814.296000",
          "162816.796000",
          "162819.296000",
          "162822.296000",
          "162824.796000",
          "162827.296000",
          "162829.796000",
          "162837.203000"
        ],
        "InstanceCreationTime": [
          "162209.812000",
          "162210.796000",
          "162210.812000",
          "162212.796000",
          "162215.296000",
          "162217.796000",
          "162220.796000",
          "162223.296000",
          "162225.796000",
          "162228.296000",
          "162231.296000",
          "162233.796000",
          "162236.296000",
          "162238.796000",
          "162241.296000",
          "162243.796000",
          "162246.796000",
          "162249.296000",
          "162251.796000",
          "162254.296000",
          "162257.296000",
          "162259.796000",
          "162302.296000",
          "162304.796000",
          "162307.296000",
          "162310.296000",
          "162312.796000",
          "162315.296000",
          "162317.796000",
          "162320.296000",
          "162323.296000",
          "162325.796000",
          "162328.312000",
          "162330.796000",
          "162333.296000",
          "162335.796000",
          "162338.796000",
          "162341.296000",
          "162343.796000",
          "162346.296000",
          "162349.296000",
          "162351.796000",
          "162354.296000",
          "162356.796000",
          "162359.296000",
          "162401.796000",
          "162404.796000",
          "162407.296000",
          "162409.796000",
          "162412.296000",
          "162415.296000",
          "162417.796000",
          "162420.296000",
          "162422.796000",
          "162425.296000",
          "162427.796000",
          "162430.796000",
          "162433.296000",
          "162435.796000",
          "162438.296000",
          "162441.296000",
          "162443.796000",
          "162446.296000",
          "162448.796000",
          "162451.296000",
          "162453.796000",
          "162456.796000",
          "162459.296000",
          "162501.796000",
          "162504.296000",
          "162507.296000",
          "162509.796000",
          "162512.296000",
          "162514.796000",
          "162517.296000",
          "162520.296000",
          "162522.796000",
          "162525.296000",
          "162527.796000",
          "162530.296000",
          "162533.296000",
          "162535.796000",
          "162538.296000",
          "162540.796000",
          "162543.296000",
          "162546.296000",
          "162548.796000",
          "162551.296000",
          "162553.796000",
          "162556.296000",
          "162559.296000",
          "162601.796000",
          "162604.296000",
          "162606.796000",
          "162609.296000",
          "162612.296000",
          "162614.796000",
          "162617.296000",
          "162619.796000",
          "162622.296000",
          "162625.296000",
          "162627.796000",
          "162630.296000",
          "162632.796000",
          "162635.296000",
          "162638.296000",
          "162640.796000",
          "162643.296000",
          "162645.796000",
          "162648.296000",
          "162651.296000",
          "162653.796000",
          "162656.296000",
          "162658.796000",
          "162701.296000",
          "162704.296000",
          "162706.796000",
          "162709.296000",
          "162711.796000",
          "162714.296000",
          "162717.296000",
          "162719.796000",
          "162722.296000",
          "162724.796000",
          "162727.296000",
          "162730.296000",
          "162732.796000",
          "162735.296000",
          "162737.796000",
          "162740.296000",
          "162743.296000",
          "162745.796000",
          "162748.296000",
          "162750.796000",
          "162753.296000",
          "162755.796000",
          "162758.796000",
          "162801.296000",
          "162803.796000",
          "162806.296000",
          "162809.296000",
          "162811.796000",
          "162814.296000",
          "162816.796000",
          "162819.296000",
          "162822.296000",
          "162824.796000",
          "162827.296000",
          "162829.796000",
          "162837.203000"
        ],
        "InstanceNumber": [
          1,
          2,
          3,
          4,
          5,
          6,
          7,
          8,
          9,
          10,
          11,
          12,
          13,
          14,
          15,
          16,
          17,
          18,
          19,
          20,
          21,
          22,
          23,
          24,
          25,
          26,
          27,
          28,
          29,
          30,
          31,
          32,
          33,
          34,
          35,
          36,
          37,
          38,
          39,
          40,
          41,
          42,
          43,
          44,
          45,
          46,
          47,
          48,
          49,
          50,
          51,
          52,
          53,
          54,
          55,
          56,
          57,
          58,
          59,
          60,
          61,
          62,
          63,
          64,
          65,
          66,
          67,
          68,
          69,
          70,
          71,
          72,
          73,
          74,
          75,
          76,
          77,
          78,
          79,
          80,
          81,
          82,
          83,
          84,
          85,
          86,
          87,
          88,
          89,
          90,
          91,
          92,
          93,
          94,
          95,
          96,
          97,
          98,
          99,
          100,
          101,
          102,
          103,
          104,
          105,
          106,
          107,
          108,
          109,
          110,
          111,
          112,
          113,
          114,
          115,
          116,
          117,
          118,
          119,
          120,
          121,
          122,
          123,
          124,
          125,
          126,
          127,
          128,
          129,
          130,
          131,
          132,
          133,
          134,
          135,
          136,
          137,
          138,
          139,
          140,
          141,
          142,
          143,
          144,
          145,
          146,
          147,
          148,
          149,
          150
        ],
        "WindowCenter": [
          817.0,
          816.0,
          816.0,
          818.0,
          818.0,
          817.0,
          817.0,
          817.0,
          819.0,
          817.0,
          817.0,
          817.0,
          818.0,
          817.0,
          816.0,
          816.0,
          816.0,
          817.0,
          816.0,
          815.0,
          815.0,
          815.0,
          815.0,
          815.0,
          815.0,
          815.0,
          816.0,
          818.0,
          816.0,
          815.0,
          815.0,
          816.0,
          816.0,
          816.0,
          816.0,
          816.0,
          815.0,
          815.0,
          815.0,
          816.0,
          817.0,
          816.0,
          815.0,
          816.0,
          816.0,
          816.0,
          816.0,
          817.0,
          816.0,
          816.0,
          816.0,
          817.0,
          817.0,
          816.0,
          816.0,
          816.0,
          816.0,
          817.0,
          816.0,
          816.0,
          816.0,
          815.0,
          817.0,
          817.0,
          816.0,
          816.0,
          816.0,
          816.0,
          815.0,
          815.0,
          817.0,
          816.0,
          815.0,
          816.0,
          817.0,
          817.0,
          816.0,
          816.0,
          817.0,
          818.0,
          818.0,
          819.0,
          818.0,
          817.0,
          817.0,
          819.0,
          819.0,
          817.0,
          816.0,
          816.0,
          818.0,
          818.0,
          818.0,
          819.0,
          818.0,
          819.0,
          819.0,
          819.0,
          819.0,
          818.0,
          818.0,
          818.0,
          818.0,
          818.0,
          819.0,
          818.0,
          817.0,
          817.0,
          818.0,
          817.0,
          818.0,
          818.0,
          818.0,
          817.0,
          816.0,
          817.0,
          817.0,
          818.0,
          819.0,
          818.0,
          818.0,
          818.0,
          818.0,
          817.0,
          817.0,
          817.0,
          819.0,
          820.0,
          818.0,
          817.0,
          817.0,
          819.0,
          820.0,
          818.0,
          817.0,
          816.0,
          818.0,
          818.0,
          817.0,
          816.0,
          816.0,
          818.0,
          818.0,
          819.0,
          820.0,
          819.0,
          818.0,
          818.0,
          819.0,
          820.0
        ],
        "WindowWidth": [
          1884.0,
          1882.0,
          1883.0,
          1889.0,
          1889.0,
          1887.0,
          1887.0,
          1890.0,
          1894.0,
          1887.0,
          1884.0,
          1885.0,
          1890.0,
          1886.0,
          1882.0,
          1882.0,
          1884.0,
          1885.0,
          1881.0,
          1881.0,
          1878.0,
          1878.0,
          1879.0,
          1881.0,
          1880.0,
          1877.0,
          1882.0,
          1889.0,
          1883.0,
          1879.0,
          1878.0,
          1884.0,
          1884.0,
          1884.0,
          1882.0,
          1882.0,
          1880.0,
          1878.0,
          1878.0,
          1885.0,
          1888.0,
          1882.0,
          1878.0,
          1883.0,
          1883.0,
          1883.0,
          1884.0,
          1885.0,
          1881.0,
          1881.0,
          1886.0,
          1887.0,
          1885.0,
          1884.0,
          1881.0,
          1881.0,
          1883.0,
          1886.0,
          1885.0,
          1884.0,
          1882.0,
          1881.0,
          1886.0,
          1886.0,
          1882.0,
          1881.0,
          1885.0,
          1885.0,
          1881.0,
          1880.0,
          1887.0,
          1882.0,
          1881.0,
          1882.0,
          1886.0,
          1887.0,
          1884.0,
          1883.0,
          1887.0,
          1890.0,
          1889.0,
          1894.0,
          1891.0,
          1888.0,
          1888.0,
          1894.0,
          1893.0,
          1887.0,
          1883.0,
          1885.0,
          1891.0,
          1890.0,
          1889.0,
          1893.0,
          1892.0,
          1896.0,
          1899.0,
          1896.0,
          1895.0,
          1892.0,
          1891.0,
          1891.0,
          1891.0,
          1890.0,
          1893.0,
          1889.0,
          1886.0,
          1888.0,
          1888.0,
          1886.0,
          1890.0,
          1891.0,
          1890.0,
          1887.0,
          1883.0,
          1888.0,
          1887.0,
          1891.0,
          1892.0,
          1892.0,
          1891.0,
          1892.0,
          1892.0,
          1887.0,
          1885.0,
          1887.0,
          1898.0,
          1899.0,
          1893.0,
          1888.0,
          1888.0,
          1895.0,
          1897.0,
          1891.0,
          1885.0,
          1885.0,
          1890.0,
          1889.0,
          1886.0,
          1882.0,
          1883.0,
          1891.0,
          1890.0,
          1894.0,
          1900.0,
          1894.0,
          1890.0,
          1891.0,
          1895.0,
          1896.0
        ]
      },
      "slices": {}
    }
  },
  "dummy_trs": 0,
  "dvars_nstd": 78.87545904362416,
  "dvars_std": 1.0922228277181207,
  "dvars_vstd": 1.0184196275167785,
  "efc": 0.5341369645511699,
  "fber": 433.7256164550781,
  "fd_mean": 0.10219435270006565,
  "fd_num": 15,
  "fd_perc": 10.0,
  "fwhm_avg": 2.8661896043376096,
  "fwhm_x": 2.8202006526662484,
  "fwhm_y": 2.865868223473317,
  "fwhm_z": 2.912499936873264,
  "gcor": 0.00401026,
  "gsr_x": -0.006596025079488754,
  "gsr_y": 0.05051581189036369,
  "provenance": {
    "md5sum": "a5b4adae44efa4c21acc8b55b24c8942",
    "settings": {
      "fd_thres": 0.2,
      "testing": false
    },
    "software": "mriqc",
    "version": "22.0.6",
    "webapi_port": null,
    "webapi_url": "https://mriqc.nimh.nih.gov/api/v1"
  },
  "size_t": 150,
  "size_x": 188,
  "size_y": 188,
  "size_z": 46,
  "snr": 2.415529551630769,
  "spacing_tr": 2.5999999046325684,
  "spacing_x": 1.0957447290420532,
  "spacing_y": 1.0957447290420532,
  "spacing_z": 1.100000023841858,
  "summary_bg_k": 74.65262107589307,
  "summary_bg_mad": 20.163393565083364,
  "summary_bg_mean": 78.43504333496094,
  "summary_bg_median": 44.78000259399414,
  "summary_bg_n": 1132691.0,
  "summary_bg_p05": 29.84000015258789,
  "summary_bg_p95": 224.2666778564453,
