{
  "aor": 0.0011862,
  "aqi": 0.013754958000000001,
  "bids_meta": {
    "AcquisitionMatrixPE": 188,
    "AcquisitionNumber": 1,
    "AcquisitionTime": "15:22:36.112500",
    "BandwidthPerPixelPhaseEncode": 19.46,
    "BaseResolution": 188,
    "ConversionSoftware": "dcm2niix",
    "ConversionSoftwareVersion": "v1.0.20180606 GCC4.8.5",
    "DelayTime": 1.2,
    "DerivedVendorReportedEchoSpacing": 0.000820013,
    "DeviceSerialNumber": "18930",
    "DwellTime": 1.9e-06,
    "EchoTime": 0.02,
    "EffectiveEchoSpacing": 0.000273338,
    "FlipAngle": 80,
    "ImageComments": "Unaliased_MB2_PE2",
    "ImageOrientationPatientDICOM": [
      0.997694,
      0.0552999,
      -0.0393616,
      -0.0469247,
      0.142908,
      -0.988623
    ],
    "ImageType": [
      "ORIGINAL",
      "PRIMARY",
      "M",
      "MB",
      "ND",
      "MOSAIC"
    ],
    "InPlanePhaseEncodingDirectionDICOM": "COL",
    "InstitutionAddress": "Oxfordlaan_55_Maastricht_753AAF_Limburg_NL_6229_EV",
    "InstitutionName": "Scannexus",
    "InstitutionalDepartmentName": "MRI_7T",
    "MRAcquisitionType": "2D",
    "MagneticFieldStrength": 6.98,
    "Manufacturer": "Siemens",
    "ManufacturersModelName": "Investigational_Device_7T",
    "Modality": "MR",
    "MultibandAccelerationFactor": 2,
    "ParallelReductionFactorInPlane": 3,
    "PartialFourier": 0.75,
    "PatientPosition": "HFS",
    "PercentPhaseFOV": 100,
    "PhaseEncodingDirection": "j",
    "PhaseEncodingSteps": 141,
    "PhaseResolution": 1,
    "PixelBandwidth": 1400,
    "ProcedureStepDescription": "FeDem_Faruk",
    "ProtocolName": "cmrr_mbep2d_bold_AP_run5",
    "PulseSequenceDetails": "%CustomerSeq%_cmrr_mbep2d_bold",
    "ReceiveCoilName": "32Ch_Head_7T",
    "ReconMatrixPE": 188,
    "RepetitionTime": 2.6,
    "SAR": 0.0584132,
    "ScanOptions": "PFP_FS",
    "ScanningSequence": "EP",
    "SequenceName": "epfid2d1_188",
    "SequenceVariant": "SK_SS",
    "SeriesDescription": "cmrr_mbep2d_bold_AP_run5",
    "SeriesNumber": 16,
    "ShimSetting": [
      74,
      22,
      526,
      331,
      -94,
      30,
      178,
      188
    ],
    "SliceThickness": 1.1,
    "SliceTiming": [
      0,
      0.7325,
      0.06,
      0.795,
      0.1225,
      0.855,
      0.1825,
      0.915,
      0.245,
      0.9775,
      0.305,
      1.0375,
      0.365,
      1.1,
      0.4275,
      1.16,
      0.4875,
      1.2225,
      0.55,
      1.2825,
      0.61,
      1.345,
      0.6725,
      0,
      0.7325,
      0.06,
      0.795,
      0.1225,
      0.855,
      0.1825,
      0.915,
      0.245,
      0.9775,
      0.305,
      1.0375,
      0.365,
      1.1,
      0.4275,
      1.16,
      0.4875,
      1.2225,
      0.55,
      1.2825,
      0.61,
      1.345,
      0.6725
    ],
    "SoftwareVersions": "syngo_MR_B17",
    "SpacingBetweenSlices": 1.1,
    "StationName": "MRC18930",
    "TaskName": "auditory",
    "TotalReadoutTime": 0.0511141,
    "TxRefAmp": 210,
    "dataset": "ds001942",
    "dcmmeta_affine": [
      [
        -1.0932174921035767,
        -0.051417529582977295,
        0.053950224071741104,
        101.08625793457031
      ],
      [
        -0.06059454008936882,
        0.1565903127193451,
        -1.0870089530944824,
        41.250267028808594
      ],
      [
        -0.043130211532115936,
        1.0832784175872803,
        0.15969029068946838,
        -112.83697509765625
      ],
      [
        0.0,
        0.0,
        0.0,
        1.0
      ]
    ],
    "dcmmeta_reorient_transform": [
      [
        0.0,
        -1.0,
        0.0,
        187.0
      ],
      [
        1.0,
        0.0,
        0.0,
        0.0
      ],
      [
        0.0,
        0.0,
        1.0,
        0.0
      ],
      [
        0.0,
        0.0,
        0.0,
        1.0
      ]
    ],
    "dcmmeta_shape": [
      188,
      188,
      46,
      150
    ],
    "dcmmeta_slice_dim": 2,
    "dcmmeta_version": 0.6,
    "global": {
      "const": {
        "AcquisitionMatrix": [
          188,
          0,
          0,
          188
        ],
        "AngioFlag": "N",
        "BitsAllocated": 16,
        "BitsStored": 12,
        "Columns": 1316,
        "EchoNumbers": 1,
        "EchoTime": 20.0,
        "EchoTrainLength": 1,
        "FlipAngle": 80.0,
        "HighBit": 11,
        "ImageOrientationPatient": [
          0.99769363669209,
          0.05529987056619,
          -0.0393615500135,
          -0.0469247344932,
          0.14290765139171,
          -0.9886230183778
        ],
        "ImagePositionPatient": [
          -679.04638794689,
          -193.02490866948,
          725.0305860642
        ],
        "ImageType": [
          "ORIGINAL",
          "PRIMARY",
          "M",
          "MB",
          "ND",
          "MOSAIC"
        ],
        "ImagedNucleus": "1H",
        "ImagingFrequency": 297.205647,
        "InPlanePhaseEncodingDirection": "COL",
        "LargestImagePixelValue": 4095,
        "MRAcquisitionType": "2D",
        "MagneticFieldStrength": 6.98,
        "Manufacturer": "SIEMENS",
        "ManufacturerModelName": "Investigational_Device_7T",
        "Modality": "MR",
        "NumberOfAverages": 1.0,
        "NumberOfPhaseEncodingSteps": 141,
        "PercentPhaseFieldOfView": 100.0,
        "PercentSampling": 100.0,
        "PerformedProcedureStepStartTime": "142439.593000",
        "PhotometricInterpretation": "MONOCHROME2",
        "PixelBandwidth": 1400.0,
        "PixelRepresentation": 0,
        "PixelSpacing": [
          1.0957447290421,
          1.0957447290421
        ],
        "ProtocolName": "cmrr_mbep2d_bold_AP_run5",
        "RepetitionTime": 2600.0,
        "Rows": 1316,
        "SAR": 0.05841324138722,
        "SamplesPerPixel": 1,
        "ScanOptions": [
          "PFP",
          "FS"
        ],
        "ScanningSequence": "EP",
        "SequenceName": "epfid2d1_188",
        "SequenceVariant": [
          "SK",
          "SS"
        ],
        "SeriesDescription": "cmrr_mbep2d_bold_AP_run5",
        "SeriesNumber": 16,
        "SeriesTime": "152245.625000",
        "SliceLocation": -52.186137634346,
        "SliceThickness": 1.1000000238419,
        "SmallestImagePixelValue": 0,
        "SoftwareVersions": "syngo MR B17",
        "SpacingBetweenSlices": 1.1000000019064,
        "SpecificCharacterSet": "ISO_IR 100",
        "StudyID": "1",
        "StudyTime": "142439.546000",
        "TransmitCoilName": "32Ch_Head_7T",
        "VariableFlipAngleFlag": "N",
        "WindowCenterWidthExplanation": "Algo1",
        "dBdt": 0.0
      },
      "slices": {}
    },
    "modality": "bold",
    "run_id": 5,
    "session_id": "SES03",
    "subject_id": "S07",
    "task_id": "auditory",
    "time": {
      "samples": {
        "AcquisitionNumber": [
          1,
          2,
          3,
          4,
          5,
          6,
          7,
          8,
          9,
          10,
          11,
          12,
          13,
          14,
          15,
          16,
          17,
          18,
          19,
          20,
          21,
          22,
          23,
          24,
          25,
          26,
          27,
          28,
          29,
          30,
          31,
          32,
          33,
          34,
          35,
          36,
          37,
          38,
          39,
          40,
          41,
          42,
          43,
          44,
          45,
          46,
          47,
          48,
          49,
          50,
          51,
          52,
          53,
          54,
          55,
          56,
          57,
          58,
          59,
          60,
          61,
          62,
          63,
          64,
          65,
          66,
          67,
          68,
          69,
          70,
          71,
          72,
          73,
          74,
          75,
          76,
          77,
          78,
          79,
          80,
          81,
          82,
          83,
          84,
          85,
          86,
          87,
          88,
          89,
          90,
          91,
          92,
          93,
          94,
          95,
          96,
          97,
          98,
          99,
          100,
          101,
          102,
          103,
          104,
          105,
          106,
          107,
          108,
          109,
          110,
          111,
          112,
          113,
          114,
          115,
          116,
          117,
          118,
          119,
          120,
          121,
          122,
          123,
          124,
          125,
          126,
          127,
          128,
          129,
          130,
          131,
          132,
          133,
          134,
          135,
          136,
          137,
          138,
          139,
          140,
          141,
          142,
          143,
          144,
          145,
          146,
          147,
          148,
          149,
          150
        ],
        "AcquisitionTime": [
          "152236.112500",
          "152238.722500",
          "152241.332500",
          "152243.942500",
          "152246.555000",
          "152249.165000",
          "152251.775000",
          "152254.385000",
          "152256.995000",
          "152259.605000",
          "152302.217500",
          "152304.827500",
          "152307.437500",
          "152310.047500",
          "152312.657500",
          "152315.267500",
          "152317.880000",
          "152320.490000",
          "152323.100000",
          "152325.710000",
          "152328.320000",
          "152330.932500",
          "152333.542500",
          "152336.152500",
          "152338.762500",
          "152341.372500",
          "152343.982500",
          "152346.595000",
          "152349.205000",
          "152351.815000",
          "152354.425000",
          "152357.035000",
          "152359.645000",
          "152402.257500",
          "152404.867500",
          "152407.477500",
          "152410.087500",
          "152412.697500",
          "152415.310000",
          "152417.920000",
          "152420.530000",
          "152423.140000",
          "152425.750000",
          "152428.360000",
          "152430.972500",
          "152433.582500",
          "152436.192500",
          "152438.802500",
          "152441.412500",
          "152444.022500",
          "152446.635000",
          "152449.245000",
          "152451.855000",
          "152454.465000",
          "152457.075000",
          "152459.687500",
          "152502.297500",
          "152504.907500",
          "152507.517500",
          "152510.127500",
          "152512.737500",
          "152515.350000",
          "152517.960000",
          "152520.570000",
          "152523.180000",
          "152525.790000",
          "152528.400000",
          "152531.012500",
          "152533.622500",
          "152536.232500",
          "152538.842500",
          "152541.452500",
          "152544.065000",
          "152546.675000",
          "152549.285000",
          "152551.895000",
          "152554.505000",
          "152557.115000",
          "152559.727500",
          "152602.337500",
          "152604.947500",
          "152607.557500",
          "152610.167500",
          "152612.777500",
          "152615.390000",
          "152618.000000",
          "152620.610000",
          "152623.220000",
          "152625.830000",
          "152628.442500",
          "152631.052500",
          "152633.662500",
          "152636.272500",
          "152638.882500",
          "152641.492500",
          "152644.105000",
          "152646.715000",
          "152649.325000",
          "152651.935000",
          "152654.545000",
          "152657.155000",
          "152659.767500",
          "152702.377500",
          "152704.987500",
          "152707.597500",
          "152710.207500",
          "152712.820000",
          "152715.430000",
          "152718.040000",
          "152720.650000",
          "152723.260000",
          "152725.870000",
          "152728.482500",
          "152731.092500",
          "152733.702500",
          "152736.312500",
          "152738.922500",
          "152741.532500",
          "152744.145000",
          "152746.755000",
          "152749.365000",
          "152751.975000",
          "152754.585000",
          "152757.197500",
          "152759.807500",
          "152802.417500",
          "152805.027500",
          "152807.637500",
          "152810.247500",
          "152812.860000",
          "152815.470000",
          "152818.080000",
          "152820.690000",
          "152823.300000",
          "152825.910000",
          "152828.522500",
          "152831.132500",
          "152833.742500",
          "152836.352500",
          "152838.962500",
          "152841.575000",
          "152844.185000",
          "152846.795000",
          "152849.405000",
          "152852.015000",
          "152854.625000",
          "152857.237500",
          "152859.847500",
          "152902.457500",
          "152905.067500"
        ],
        "ContentTime": [
          "152245.625000",
          "152246.125000",
          "152246.625000",
          "152248.625000",
          "152251.625000",
          "152254.125000",
          "152256.625000",
          "152259.125000",
          "152301.625000",
          "152304.625000",
          "152307.125000",
          "152309.625000",
          "152312.125000",
          "152314.625000",
          "152317.625000",
          "152320.125000",
          "152322.625000",
          "152325.125000",
          "152327.625000",
          "152330.625000",
          "152333.125000",
          "152335.625000",
          "152338.125000",
          "152340.625000",
          "152343.625000",
          "152346.125000",
          "152348.625000",
          "152351.125000",
          "152353.625000",
          "152356.625000",
          "152359.125000",
          "152401.625000",
          "152404.125000",
          "152406.625000",
          "152409.625000",
          "152412.125000",
          "152414.625000",
          "152417.125000",
          "152419.625000",
          "152422.625000",
          "152425.125000",
          "152427.625000",
          "152430.125000",
          "152432.625000",
          "152435.625000",
          "152438.125000",
          "152440.625000",
          "152443.125000",
          "152445.625000",
          "152448.625000",
          "152451.125000",
          "152453.625000",
          "152456.125000",
          "152458.625000",
          "152501.625000",
          "152504.125000",
          "152506.625000",
          "152509.125000",
          "152511.625000",
          "152514.625000",
          "152517.125000",
          "152519.625000",
          "152522.125000",
          "152524.625000",
          "152527.625000",
          "152530.125000",
          "152532.625000",
          "152535.125000",
          "152537.625000",
          "152540.625000",
          "152543.125000",
          "152545.625000",
          "152548.125000",
          "152550.625000",
          "152553.625000",
          "152556.125000",
          "152558.625000",
          "152601.125000",
          "152603.625000",
          "152606.625000",
          "152609.125000",
          "152611.625000",
          "152614.125000",
          "152616.625000",
          "152619.625000",
          "152622.125000",
          "152624.625000",
          "152627.125000",
          "152629.625000",
          "152632.625000",
          "152635.125000",
          "152637.625000",
          "152640.125000",
          "152643.125000",
          "152645.625000",
          "152648.125000",
          "152650.625000",
          "152653.140000",
          "152655.625000",
          "152658.625000",
          "152701.125000",
          "152703.625000",
          "152706.125000",
          "152708.625000",
          "152711.625000",
          "152714.125000",
          "152716.625000",
          "152719.125000",
          "152721.625000",
          "152724.625000",
          "152727.125000",
          "152729.625000",
          "152732.125000",
          "152734.625000",
          "152737.625000",
          "152740.125000",
          "152742.625000",
          "152745.125000",
          "152747.625000",
          "152750.625000",
          "152753.125000",
          "152755.625000",
          "152758.125000",
          "152800.625000",
          "152803.625000",
          "152806.125000",
          "152808.625000",
          "152811.125000",
          "152813.625000",
          "152816.625000",
          "152819.125000",
          "152821.625000",
          "152824.125000",
          "152826.625000",
          "152829.625000",
          "152832.125000",
          "152834.625000",
          "152837.125000",
          "152839.625000",
          "152842.625000",
          "152845.125000",
          "152847.625000",
          "152850.125000",
          "152853.125000",
          "152855.625000",
          "152858.125000",
          "152900.625000",
          "152903.125000",
          "152905.625000",
          "152913.156000"
        ],
        "InstanceCreationTime": [
          "152245.625000",
          "152246.125000",
          "152246.625000",
          "152248.625000",
          "152251.625000",
          "152254.125000",
          "152256.625000",
          "152259.125000",
          "152301.625000",
          "152304.625000",
          "152307.125000",
          "152309.625000",
          "152312.125000",
          "152314.625000",
          "152317.625000",
          "152320.125000",
          "152322.625000",
          "152325.125000",
          "152327.625000",
          "152330.625000",
          "152333.125000",
          "152335.625000",
          "152338.125000",
          "152340.625000",
          "152343.625000",
          "152346.125000",
          "152348.625000",
          "152351.125000",
          "152353.625000",
          "152356.625000",
          "152359.125000",
          "152401.625000",
          "152404.125000",
          "152406.625000",
          "152409.625000",
          "152412.125000",
          "152414.625000",
          "152417.125000",
          "152419.625000",
          "152422.625000",
          "152425.125000",
          "152427.625000",
          "152430.125000",
          "152432.625000",
          "152435.625000",
          "152438.125000",
          "152440.625000",
          "152443.125000",
          "152445.625000",
          "152448.625000",
          "152451.125000",
          "152453.625000",
          "152456.125000",
          "152458.625000",
          "152501.625000",
          "152504.125000",
          "152506.625000",
          "152509.125000",
          "152511.625000",
          "152514.625000",
          "152517.125000",
          "152519.625000",
          "152522.125000",
          "152524.625000",
          "152527.625000",
          "152530.125000",
          "152532.625000",
          "152535.125000",
          "152537.625000",
          "152540.625000",
          "152543.125000",
          "152545.625000",
          "152548.125000",
          "152550.625000",
          "152553.625000",
          "152556.125000",
          "152558.625000",
          "152601.125000",
          "152603.625000",
          "152606.625000",
          "152609.125000",
          "152611.625000",
          "152614.125000",
          "152616.625000",
          "152619.625000",
          "152622.125000",
          "152624.625000",
          "152627.125000",
          "152629.625000",
          "152632.625000",
          "152635.125000",
          "152637.625000",
          "152640.125000",
          "152643.125000",
          "152645.625000",
          "152648.125000",
          "152650.625000",
          "152653.140000",
          "152655.625000",
          "152658.625000",
          "152701.125000",
          "152703.625000",
          "152706.125000",
          "152708.625000",
          "152711.625000",
          "152714.125000",
          "152716.625000",
          "152719.125000",
          "152721.625000",
          "152724.625000",
          "152727.125000",
          "152729.625000",
          "152732.125000",
          "152734.625000",
          "152737.625000",
          "152740.125000",
          "152742.625000",
          "152745.125000",
          "152747.625000",
          "152750.625000",
          "152753.125000",
          "152755.625000",
          "152758.125000",
          "152800.625000",
          "152803.625000",
          "152806.125000",
          "152808.625000",
          "152811.125000",
          "152813.625000",
          "152816.625000",
          "152819.125000",
          "152821.625000",
          "152824.125000",
          "152826.625000",
          "152829.625000",
          "152832.125000",
          "152834.625000",
          "152837.125000",
          "152839.625000",
          "152842.625000",
          "152845.125000",
          "152847.625000",
          "152850.125000",
          "152853.125000",
          "152855.625000",
          "152858.125000",
          "152900.625000",
          "152903.125000",
          "152905.625000",
          "152913.156000"
        ],
        "InstanceNumber": [
          1,
          2,
          3,
          4,
          5,
          6,
          7,
          8,
          9,
          10,
          11,
          12,
          13,
          14,
          15,
          16,
          17,
          18,
          19,
          20,
          21,
          22,
          23,
          24,
          25,
          26,
          27,
          28,
          29,
          30,
          31,
          32,
          33,
          34,
          35,
          36,
          37,
          38,
          39,
          40,
          41,
          42,
          43,
          44,
          45,
          46,
          47,
          48,
          49,
          50,
          51,
          52,
          53,
          54,
          55,
          56,
          57,
          58,
          59,
          60,
          61,
          62,
          63,
          64,
          65,
          66,
          67,
          68,
          69,
          70,
          71,
          72,
          73,
          74,
          75,
          76,
          77,
          78,
          79,
          80,
          81,
          82,
          83,
          84,
          85,
          86,
          87,
          88,
          89,
          90,
          91,
          92,
          93,
          94,
          95,
          96,
          97,
          98,
          99,
          100,
          101,
          102,
          103,
          104,
          105,
          106,
          107,
          108,
          109,
          110,
          111,
          112,
          113,
          114,
          115,
          116,
          117,
          118,
          119,
          120,
          121,
          122,
          123,
          124,
          125,
          126,
          127,
          128,
          129,
          130,
          131,
          132,
          133,
          134,
          135,
          136,
          137,
          138,
          139,
          140,
          141,
          142,
          143,
          144,
          145,
          146,
          147,
          148,
          149,
          150
        ],
        "WindowCenter": [
          850.0,
          850.0,
          850.0,
          850.0,
          851.0,
          851.0,
          850.0,
          849.0,
          849.0,
          849.0,
          849.0,
          849.0,
          848.0,
          849.0,
          849.0,
          849.0,
          850.0,
          850.0,
          849.0,
          850.0,
          851.0,
          852.0,
          849.0,
          848.0,
          847.0,
          846.0,
          847.0,
          848.0,
          849.0,
          850.0,
          851.0,
          850.0,
          850.0,
          850.0,
          849.0,
          849.0,
          849.0,
          850.0,
          850.0,
          850.0,
          850.0,
          850.0,
          849.0,
          848.0,
          849.0,
          849.0,
          850.0,
          849.0,
          849.0,
          851.0,
          850.0,
          849.0,
          850.0,
          849.0,
          849.0,
          849.0,
          849.0,
          850.0,
          850.0,
          850.0,
          850.0,
          850.0,
          850.0,
          850.0,
          850.0,
          850.0,
          849.0,
          849.0,
          850.0,
          850.0,
          849.0,
          850.0,
          850.0,
          851.0,
          851.0,
          850.0,
          850.0,
          850.0,
          850.0,
          849.0,
          851.0,
          850.0,
          851.0,
          850.0,
          850.0,
          850.0,
          850.0,
          850.0,
          849.0,
          850.0,
          850.0,
          851.0,
          852.0,
          850.0,
          850.0,
          850.0,
          850.0,
          850.0,
          850.0,
          850.0,
          851.0,
          851.0,
          850.0,
          851.0,
          851.0,
          850.0,
          851.0,
          850.0,
          851.0,
          852.0,
          851.0,
          850.0,
          850.0,
          850.0,
          850.0,
          850.0,
          850.0,
          851.0,
          851.0,
          850.0,
          851.0,
          851.0,
          852.0,
          852.0,
          853.0,
          850.0,
          849.0,
          847.0,
          846.0,
          848.0,
          848.0,
          849.0,
          850.0,
          851.0,
          851.0,
          851.0,
          852.0,
          852.0,
          851.0,
          852.0,
          852.0,
          851.0,
          851.0,
          851.0,
          850.0,
          850.0,
          849.0,
          849.0,
          849.0,
          851.0
        ],
        "WindowWidth": [
          1921.0,
          1919.0,
          1920.0,
          1922.0,
          1925.0,
          1924.0,
          1919.0,
          1917.0,
          1919.0,
          1918.0,
          1917.0,
          1915.0,
          1914.0,
          1917.0,
          1917.0,
          1916.0,
          1920.0,
          1919.0,
          1920.0,
          1922.0,
          1927.0,
          1931.0,
          1916.0,
          1914.0,
          1910.0,
          1906.0,
          1910.0,
          1912.0,
          1917.0,
          1921.0,
          1923.0,
          1922.0,
          1921.0,
          1920.0,
          1917.0,
          1918.0,
          1918.0,
          1920.0,
          1921.0,
          1922.0,
          1922.0,
          1921.0,
          1918.0,
          1915.0,
          1916.0,
          1916.0,
          1919.0,
          1918.0,
          1917.0,
          1925.0,
          1918.0,
          1918.0,
          1920.0,
          1917.0,
          1917.0,
          1916.0,
          1918.0,
          1920.0,
          1922.0,
          1922.0,
          1921.0,
          1920.0,
          1920.0,
          1922.0,
          1921.0,
          1921.0,
          1918.0,
          1918.0,
          1919.0,
          1919.0,
          1919.0,
          1922.0,
          1921.0,
          1924.0,
          1922.0,
          1922.0,
          1918.0,
          1921.0,
          1920.0,
          1917.0,
          1922.0,
          1920.0,
          1923.0,
          1919.0,
          1920.0,
          1921.0,
          1921.0,
          1919.0,
          1917.0,
          1920.0,
          1919.0,
          1922.0,
          1925.0,
          1920.0,
          1921.0,
          1919.0,
          1918.0,
          1920.0,
          1921.0,
          1922.0,
          1923.0,
          1922.0,
          1920.0,
          1922.0,
          1922.0,
          1920.0,
          1922.0,
          1920.0,
          1925.0,
          1925.0,
          1923.0,
          1921.0,
          1921.0,
          1919.0,
          1919.0,
          1919.0,
          1920.0,
          1922.0,
          1924.0,
          1921.0,
          1922.0,
          1923.0,
          1927.0,
          1929.0,
          1930.0,
          1921.0,
          1916.0,
          1908.0,
          1907.0,
          1912.0,
          1914.0,
          1917.0,
          1920.0,
          1924.0,
          1924.0,
          1923.0,
          1928.0,
          1928.0,
          1923.0,
          1926.0,
          1925.0,
          1925.0,
          1924.0,
          1924.0,
          1918.0,
          1918.0,
          1915.0,
          1916.0,
          1917.0,
          1924.0
        ]
      },
      "slices": {}
    }
  },
  "dummy_trs": 0,
  "dvars_nstd": 76.3056976524161,
  "dvars_std": 1.091976126442953,
  "dvars_vstd": 1.0358713049664423,
  "efc": 0.5733731661267626,
  "fber": 343.77777099609375,
  "fd_mean": 0.05333790015934638,
  "fd_num": 6,
  "fd_perc": 4.0,
  "fwhm_avg": 2.8727733703990292,
  "fwhm_x": 2.7796163826064895,
  "fwhm_y": 2.853912884193289,
  "fwhm_z": 2.9847908443973097,
  "gcor": 0.00285168,
  "gsr_x": -0.00026221288135275245,
  "gsr_y": 0.046304333955049515,
  "provenance": {
    "md5sum": "81329acbc3395c5697a1194a31b16229",
    "settings": {
      "fd_thres": 0.2,
      "testing": false
    },
    "software": "mriqc",
    "version": "23.0.1",
    "webapi_port": null,
    "webapi_url": "https://mriqc.nimh.nih.gov/api/v1"
  },
  "size_t": 150,
  "size_x": 188,
  "size_y": 188,
  "size_z": 46,
  "snr": 2.501997456225999,
  "spacing_tr": 2.5999999046325684,
  "spacing_x": 1.0957447290420532,
  "spacing_y": 1.0957447290420532,
  "spacing_z": 1.100000023841858,
  "summary_bg_k": 54.316696026946275,
  "summary_bg_mad": 23.90943230496368,
  "summary_bg_mean": 87.60711669921875,
  "summary_bg_median": 49.753334045410156,
  "summary_bg_n": 1061682.0,
  "summary_bg_p05": 31.64666748046875,
  "summary_bg_p95": 262.05999755859375,
