{
  "aor": 0.0011018,
  "aqi": 0.015429304000000001,
  "bids_meta": {
    "AcquisitionMatrixPE": 188,
    "AcquisitionNumber": 1,
    "AcquisitionTime": "14:59:50.177500",
    "BandwidthPerPixelPhaseEncode": 19.46,
    "BaseResolution": 188,
    "ConversionSoftware": "dcm2niix",
    "ConversionSoftwareVersion": "v1.0.20180606 GCC4.8.5",
    "DelayTime": 1.2,
    "DerivedVendorReportedEchoSpacing": 0.000820013,
    "DeviceSerialNumber": "18930",
    "DwellTime": 1.9e-06,
    "EchoTime": 0.02,
    "EffectiveEchoSpacing": 0.000273338,
    "FlipAngle": 80,
    "ImageComments": "Unaliased_MB2_PE2",
    "ImageOrientationPatientDICOM": [
      0.997694,
      0.0552999,
      -0.0393616,
      -0.0469247,
      0.142908,
      -0.988623
    ],
    "ImageType": [
      "ORIGINAL",
      "PRIMARY",
      "M",
      "MB",
      "ND",
      "MOSAIC"
    ],
    "InPlanePhaseEncodingDirectionDICOM": "COL",
    "InstitutionAddress": "Oxfordlaan_55_Maastricht_753AAF_Limburg_NL_6229_EV",
    "InstitutionName": "Scannexus",
    "InstitutionalDepartmentName": "MRI_7T",
    "MRAcquisitionType": "2D",
    "MagneticFieldStrength": 6.98,
    "Manufacturer": "Siemens",
    "ManufacturersModelName": "Investigational_Device_7T",
    "Modality": "MR",
    "MultibandAccelerationFactor": 2,
    "ParallelReductionFactorInPlane": 3,
    "PartialFourier": 0.75,
    "PatientPosition": "HFS",
    "PercentPhaseFOV": 100,
    "PhaseEncodingDirection": "j",
    "PhaseEncodingSteps": 141,
    "PhaseResolution": 1,
    "PixelBandwidth": 1400,
    "ProcedureStepDescription": "FeDem_Faruk",
    "ProtocolName": "cmrr_mbep2d_bold_AP_run2",
    "PulseSequenceDetails": "%CustomerSeq%_cmrr_mbep2d_bold",
    "ReceiveCoilName": "32Ch_Head_7T",
    "ReconMatrixPE": 188,
    "RepetitionTime": 2.6,
    "SAR": 0.0584819,
    "ScanOptions": "PFP_FS",
    "ScanningSequence": "EP",
    "SequenceName": "epfid2d1_188",
    "SequenceVariant": "SK_SS",
    "SeriesDescription": "cmrr_mbep2d_bold_AP_run2",
    "SeriesNumber": 13,
    "ShimSetting": [
      74,
      22,
      526,
      331,
      -94,
      30,
      178,
      188
    ],
    "SliceThickness": 1.1,
    "SliceTiming": [
      0,
      0.735,
      0.0625,
      0.795,
      0.1225,
      0.8575,
      0.185,
      0.9175,
      0.245,
      0.98,
      0.3075,
      1.04,
      0.3675,
      1.1,
      0.43,
      1.1625,
      0.49,
      1.2225,
      0.55,
      1.285,
      0.6125,
      1.345,
      0.6725,
      0,
      0.735,
      0.0625,
      0.795,
      0.1225,
      0.8575,
      0.185,
      0.9175,
      0.245,
      0.98,
      0.3075,
      1.04,
      0.3675,
      1.1,
      0.43,
      1.1625,
      0.49,
      1.2225,
      0.55,
      1.285,
      0.6125,
      1.345,
      0.6725
    ],
    "SoftwareVersions": "syngo_MR_B17",
    "SpacingBetweenSlices": 1.1,
    "StationName": "MRC18930",
    "TaskName": "auditory",
    "TotalReadoutTime": 0.0511141,
    "TxRefAmp": 210,
    "dataset": "ds001942",
    "dcmmeta_affine": [
      [
        -1.0932174921035767,
        -0.051417529582977295,
        0.053950224071741104,
        101.08625793457031
      ],
      [
        -0.06059454008936882,
        0.1565903127193451,
        -1.0870089530944824,
        41.250267028808594
      ],
      [
        -0.043130211532115936,
        1.0832784175872803,
        0.15969029068946838,
        -112.83697509765625
      ],
      [
        0.0,
        0.0,
        0.0,
        1.0
      ]
    ],
    "dcmmeta_reorient_transform": [
      [
        0.0,
        -1.0,
        0.0,
        187.0
      ],
      [
        1.0,
        0.0,
        0.0,
        0.0
      ],
      [
        0.0,
        0.0,
        1.0,
        0.0
      ],
      [
        0.0,
        0.0,
        0.0,
        1.0
      ]
    ],
    "dcmmeta_shape": [
      188,
      188,
      46,
      150
    ],
    "dcmmeta_slice_dim": 2,
    "dcmmeta_version": 0.6,
    "global": {
      "const": {
        "AcquisitionMatrix": [
          188,
          0,
          0,
          188
        ],
        "AngioFlag": "N",
        "BitsAllocated": 16,
        "BitsStored": 12,
        "Columns": 1316,
        "EchoNumbers": 1,
        "EchoTime": 20.0,
        "EchoTrainLength": 1,
        "FlipAngle": 80.0,
        "HighBit": 11,
        "ImageOrientationPatient": [
          0.99769363669209,
          0.05529987056619,
          -0.0393615500135,
          -0.0469247344932,
          0.14290765139171,
          -0.9886230183778
        ],
        "ImagePositionPatient": [
          -679.04638794689,
          -193.02490866948,
          725.0305860642
        ],
        "ImageType": [
          "ORIGINAL",
          "PRIMARY",
          "M",
          "MB",
          "ND",
          "MOSAIC"
        ],
        "ImagedNucleus": "1H",
        "ImagingFrequency": 297.205647,
        "InPlanePhaseEncodingDirection": "COL",
        "LargestImagePixelValue": 4095,
        "MRAcquisitionType": "2D",
        "MagneticFieldStrength": 6.98,
        "Manufacturer": "SIEMENS",
        "ManufacturerModelName": "Investigational_Device_7T",
        "Modality": "MR",
        "NumberOfAverages": 1.0,
        "NumberOfPhaseEncodingSteps": 141,
        "PercentPhaseFieldOfView": 100.0,
        "PercentSampling": 100.0,
        "PerformedProcedureStepStartTime": "142439.593000",
        "PhotometricInterpretation": "MONOCHROME2",
        "PixelBandwidth": 1400.0,
        "PixelRepresentation": 0,
        "PixelSpacing": [
          1.0957447290421,
          1.0957447290421
        ],
        "ProtocolName": "cmrr_mbep2d_bold_AP_run2",
        "RepetitionTime": 2600.0,
        "Rows": 1316,
        "SAR": 0.05848185386443,
        "SamplesPerPixel": 1,
        "ScanOptions": [
          "PFP",
          "FS"
        ],
        "ScanningSequence": "EP",
        "SequenceName": "epfid2d1_188",
        "SequenceVariant": [
          "SK",
          "SS"
        ],
        "SeriesDescription": "cmrr_mbep2d_bold_AP_run2",
        "SeriesNumber": 13,
        "SeriesTime": "145959.859000",
        "SliceLocation": -52.186137634346,
        "SliceThickness": 1.1000000238419,
        "SmallestImagePixelValue": 0,
        "SoftwareVersions": "syngo MR B17",
        "SpacingBetweenSlices": 1.1000000019064,
        "SpecificCharacterSet": "ISO_IR 100",
        "StudyID": "1",
        "StudyTime": "142439.546000",
        "TransmitCoilName": "32Ch_Head_7T",
        "VariableFlipAngleFlag": "N",
        "WindowCenterWidthExplanation": "Algo1",
        "dBdt": 0.0
      },
      "slices": {}
    },
    "modality": "bold",
    "run_id": 2,
    "session_id": "SES03",
    "subject_id": "S07",
    "task_id": "auditory",
    "time": {
      "samples": {
        "AcquisitionNumber": [
          1,
          2,
          3,
          4,
          5,
          6,
          7,
          8,
          9,
          10,
          11,
          12,
          13,
          14,
          15,
          16,
          17,
          18,
          19,
          20,
          21,
          22,
          23,
          24,
          25,
          26,
          27,
          28,
          29,
          30,
          31,
          32,
          33,
          34,
          35,
          36,
          37,
          38,
          39,
          40,
          41,
          42,
          43,
          44,
          45,
          46,
          47,
          48,
          49,
          50,
          51,
          52,
          53,
          54,
          55,
          56,
          57,
          58,
          59,
          60,
          61,
          62,
          63,
          64,
          65,
          66,
          67,
          68,
          69,
          70,
          71,
          72,
          73,
          74,
          75,
          76,
          77,
          78,
          79,
          80,
          81,
          82,
          83,
          84,
          85,
          86,
          87,
          88,
          89,
          90,
          91,
          92,
          93,
          94,
          95,
          96,
          97,
          98,
          99,
          100,
          101,
          102,
          103,
          104,
          105,
          106,
          107,
          108,
          109,
          110,
          111,
          112,
          113,
          114,
          115,
          116,
          117,
          118,
          119,
          120,
          121,
          122,
          123,
          124,
          125,
          126,
          127,
          128,
          129,
          130,
          131,
          132,
          133,
          134,
          135,
          136,
          137,
          138,
          139,
          140,
          141,
          142,
          143,
          144,
          145,
          146,
          147,
          148,
          149,
          150
        ],
        "AcquisitionTime": [
          "145950.177500",
          "145952.790000",
          "145955.400000",
          "145958.010000",
          "150000.620000",
          "150003.230000",
          "150005.840000",
          "150008.452500",
          "150011.062500",
          "150013.672500",
          "150016.282500",
          "150018.892500",
          "150021.505000",
          "150024.115000",
          "150026.725000",
          "150029.335000",
          "150031.945000",
          "150034.555000",
          "150037.167500",
          "150039.777500",
          "150042.387500",
          "150044.997500",
          "150047.607500",
          "150050.220000",
          "150052.830000",
          "150055.440000",
          "150058.050000",
          "150100.660000",
          "150103.270000",
          "150105.882500",
          "150108.492500",
          "150111.102500",
          "150113.712500",
          "150116.322500",
          "150118.932500",
          "150121.545000",
          "150124.155000",
          "150126.765000",
          "150129.375000",
          "150131.985000",
          "150134.597500",
          "150137.207500",
          "150139.817500",
          "150142.427500",
          "150145.037500",
          "150147.647500",
          "150150.260000",
          "150152.870000",
          "150155.480000",
          "150158.090000",
          "150200.700000",
          "150203.310000",
          "150205.922500",
          "150208.532500",
          "150211.142500",
          "150213.752500",
          "150216.362500",
          "150218.975000",
          "150221.585000",
          "150224.195000",
          "150226.805000",
          "150229.415000",
          "150232.025000",
          "150234.637500",
          "150237.247500",
          "150239.857500",
          "150242.467500",
          "150245.077500",
          "150247.687500",
          "150250.300000",
          "150252.910000",
          "150255.520000",
          "150258.130000",
          "150300.740000",
          "150303.352500",
          "150305.962500",
          "150308.572500",
          "150311.182500",
          "150313.792500",
          "150316.402500",
          "150319.015000",
          "150321.625000",
          "150324.235000",
          "150326.845000",
          "150329.455000",
          "150332.065000",
          "150334.677500",
          "150337.287500",
          "150339.897500",
          "150342.507500",
          "150345.117500",
          "150347.730000",
          "150350.340000",
          "150352.950000",
          "150355.560000",
          "150358.170000",
          "150400.780000",
          "150403.392500",
          "150406.002500",
          "150408.612500",
          "150411.222500",
          "150413.832500",
          "150416.442500",
          "150419.055000",
          "150421.665000",
          "150424.275000",
          "150426.885000",
          "150429.495000",
          "150432.107500",
          "150434.717500",
          "150437.327500",
          "150439.937500",
          "150442.547500",
          "150445.157500",
          "150447.770000",
          "150450.380000",
          "150452.990000",
          "150455.600000",
          "150458.210000",
          "150500.820000",
          "150503.432500",
          "150506.042500",
          "150508.652500",
          "150511.262500",
          "150513.872500",
          "150516.485000",
          "150519.095000",
          "150521.705000",
          "150524.315000",
          "150526.925000",
          "150529.535000",
          "150532.147500",
          "150534.757500",
          "150537.367500",
          "150539.977500",
          "150542.587500",
          "150545.197500",
          "150547.810000",
          "150550.420000",
          "150553.030000",
          "150555.640000",
          "150558.250000",
          "150600.862500",
          "150603.472500",
          "150606.082500",
          "150608.692500",
          "150611.302500",
          "150613.912500",
          "150616.525000",
          "150619.135000"
        ],
        "ContentTime": [
          "145959.859000",
          "150000.359000",
          "150000.859000",
          "150002.859000",
          "150005.359000",
          "150007.859000",
          "150010.859000",
          "150013.359000",
          "150015.859000",
          "150018.359000",
          "150020.859000",
          "150023.859000",
          "150026.359000",
          "150028.859000",
          "150031.359000",
          "150033.859000",
          "150036.859000",
          "150039.359000",
          "150041.859000",
          "150044.359000",
          "150046.859000",
          "150049.859000",
          "150052.359000",
          "150054.859000",
          "150057.359000",
          "150059.859000",
          "150102.859000",
          "150105.359000",
          "150107.859000",
          "150110.359000",
          "150112.859000",
          "150115.859000",
          "150118.359000",
          "150120.859000",
          "150123.359000",
          "150125.859000",
          "150128.859000",
          "150131.359000",
          "150133.859000",
          "150136.359000",
          "150138.859000",
          "150141.859000",
          "150144.359000",
          "150146.859000",
          "150149.359000",
          "150151.859000",
          "150154.859000",
          "150157.359000",
          "150159.859000",
          "150202.359000",
          "150204.859000",
          "150207.859000",
          "150210.359000",
          "150212.859000",
          "150215.359000",
          "150217.859000",
          "150220.859000",
          "150223.359000",
          "150225.859000",
          "150228.359000",
          "150230.859000",
          "150233.859000",
          "150236.359000",
          "150238.859000",
          "150241.359000",
          "150244.359000",
          "150246.859000",
          "150249.359000",
          "150251.859000",
          "150254.359000",
          "150256.859000",
          "150259.859000",
          "150302.359000",
          "150304.859000",
          "150307.359000",
          "150309.859000",
          "150312.859000",
          "150315.359000",
          "150317.859000",
          "150320.359000",
          "150322.859000",
          "150325.859000",
          "150328.359000",
          "150330.859000",
          "150333.359000",
          "150335.859000",
          "150338.859000",
          "150341.359000",
          "150343.859000",
          "150346.359000",
          "150348.859000",
          "150351.859000",
          "150354.359000",
          "150356.859000",
          "150359.359000",
          "150401.859000",
          "150404.859000",
          "150407.359000",
          "150409.859000",
          "150412.359000",
          "150414.859000",
          "150417.859000",
          "150420.359000",
          "150422.859000",
          "150425.359000",
          "150427.859000",
          "150430.859000",
          "150433.359000",
          "150435.859000",
          "150438.359000",
          "150440.859000",
          "150443.859000",
          "150446.359000",
          "150448.859000",
          "150451.359000",
          "150453.859000",
          "150456.859000",
          "150459.359000",
          "150501.859000",
          "150504.359000",
          "150506.859000",
          "150509.859000",
          "150512.359000",
          "150514.859000",
          "150517.359000",
          "150519.859000",
          "150522.859000",
          "150525.359000",
          "150527.859000",
          "150530.359000",
          "150532.859000",
          "150535.859000",
          "150538.359000",
          "150540.859000",
          "150543.359000",
          "150545.859000",
          "150548.859000",
          "150551.359000",
          "150553.859000",
          "150556.359000",
          "150558.859000",
          "150601.859000",
          "150604.359000",
          "150606.859000",
          "150609.359000",
          "150612.359000",
          "150614.859000",
          "150617.359000",
          "150619.859000",
          "150627.203000"
        ],
        "InstanceCreationTime": [
          "145959.859000",
          "150000.359000",
          "150000.859000",
          "150002.859000",
          "150005.359000",
          "150007.859000",
          "150010.859000",
          "150013.359000",
          "150015.859000",
          "150018.359000",
          "150020.859000",
          "150023.859000",
          "150026.359000",
          "150028.859000",
          "150031.359000",
          "150033.859000",
          "150036.859000",
          "150039.359000",
          "150041.859000",
          "150044.359000",
          "150046.859000",
          "150049.859000",
          "150052.359000",
          "150054.859000",
          "150057.359000",
          "150059.859000",
          "150102.859000",
          "150105.359000",
          "150107.859000",
          "150110.359000",
          "150112.859000",
          "150115.859000",
          "150118.359000",
          "150120.859000",
          "150123.359000",
          "150125.859000",
          "150128.859000",
          "150131.359000",
          "150133.859000",
          "150136.359000",
          "150138.859000",
          "150141.859000",
          "150144.359000",
          "150146.859000",
          "150149.359000",
          "150151.859000",
          "150154.859000",
          "150157.359000",
          "150159.859000",
          "150202.359000",
          "150204.859000",
          "150207.859000",
          "150210.359000",
          "150212.859000",
          "150215.359000",
          "150217.859000",
          "150220.859000",
          "150223.359000",
          "150225.859000",
          "150228.359000",
          "150230.859000",
          "150233.859000",
          "150236.359000",
          "150238.859000",
          "150241.359000",
          "150244.359000",
          "150246.859000",
          "150249.359000",
          "150251.859000",
          "150254.359000",
          "150256.859000",
          "150259.859000",
          "150302.359000",
          "150304.859000",
          "150307.359000",
          "150309.859000",
          "150312.859000",
          "150315.359000",
          "150317.859000",
          "150320.359000",
          "150322.859000",
          "150325.859000",
          "150328.359000",
          "150330.859000",
          "150333.359000",
          "150335.859000",
          "150338.859000",
          "150341.359000",
          "150343.859000",
          "150346.359000",
          "150348.859000",
          "150351.859000",
          "150354.359000",
          "150356.859000",
          "150359.359000",
          "150401.859000",
          "150404.859000",
          "150407.359000",
          "150409.859000",
          "150412.359000",
          "150414.859000",
          "150417.859000",
          "150420.359000",
          "150422.859000",
          "150425.359000",
          "150427.859000",
          "150430.859000",
          "150433.359000",
          "150435.859000",
          "150438.359000",
          "150440.859000",
          "150443.859000",
          "150446.359000",
          "150448.859000",
          "150451.359000",
          "150453.859000",
          "150456.859000",
          "150459.359000",
          "150501.859000",
          "150504.359000",
          "150506.859000",
          "150509.859000",
          "150512.359000",
          "150514.859000",
          "150517.359000",
          "150519.859000",
          "150522.859000",
          "150525.359000",
          "150527.859000",
          "150530.359000",
          "150532.859000",
          "150535.859000",
          "150538.359000",
          "150540.859000",
          "150543.359000",
          "150545.859000",
          "150548.859000",
          "150551.359000",
          "150553.859000",
          "150556.359000",
          "150558.859000",
          "150601.859000",
          "150604.359000",
          "150606.859000",
          "150609.359000",
          "150612.359000",
          "150614.859000",
          "150617.359000",
          "150619.859000",
          "150627.203000"
        ],
        "InstanceNumber": [
          1,
          2,
          3,
          4,
          5,
          6,
          7,
          8,
          9,
          10,
          11,
          12,
          13,
          14,
          15,
          16,
          17,
          18,
          19,
          20,
          21,
          22,
          23,
          24,
          25,
          26,
          27,
          28,
          29,
          30,
          31,
          32,
          33,
          34,
          35,
          36,
          37,
          38,
          39,
          40,
          41,
          42,
          43,
          44,
          45,
          46,
          47,
          48,
          49,
          50,
          51,
          52,
          53,
          54,
          55,
          56,
          57,
          58,
          59,
          60,
          61,
          62,
          63,
          64,
          65,
          66,
          67,
          68,
          69,
          70,
          71,
          72,
          73,
          74,
          75,
          76,
          77,
          78,
          79,
          80,
          81,
          82,
          83,
          84,
          85,
          86,
          87,
          88,
          89,
          90,
          91,
          92,
          93,
          94,
          95,
          96,
          97,
          98,
          99,
          100,
          101,
          102,
          103,
          104,
          105,
          106,
          107,
          108,
          109,
          110,
          111,
          112,
          113,
          114,
          115,
          116,
          117,
          118,
          119,
          120,
          121,
          122,
          123,
          124,
          125,
          126,
          127,
          128,
          129,
          130,
          131,
          132,
          133,
          134,
          135,
          136,
          137,
          138,
          139,
          140,
          141,
          142,
          143,
          144,
          145,
          146,
          147,
          148,
          149,
          150
        ],
        "WindowCenter": [
          848.0,
          847.0,
          849.0,
          847.0,
          845.0,
          843.0,
          842.0,
          842.0,
          844.0,
          845.0,
          845.0,
          847.0,
          849.0,
          846.0,
          845.0,
          844.0,
          846.0,
          848.0,
          846.0,
          847.0,
          847.0,
          845.0,
          845.0,
          844.0,
          844.0,
          845.0,
          846.0,
          846.0,
          846.0,
          846.0,
          846.0,
          846.0,
          846.0,
          846.0,
          847.0,
          846.0,
          847.0,
          846.0,
          846.0,
          847.0,
          847.0,
          847.0,
          846.0,
          847.0,
          847.0,
          847.0,
          846.0,
          845.0,
          846.0,
          847.0,
          847.0,
          844.0,
          841.0,
          841.0,
          842.0,
          843.0,
          843.0,
          844.0,
          846.0,
          845.0,
          845.0,
          846.0,
          847.0,
          847.0,
          847.0,
          849.0,
          847.0,
          845.0,
          845.0,
          844.0,
          844.0,
          843.0,
          843.0,
          843.0,
          844.0,
          845.0,
          844.0,
          844.0,
          846.0,
          846.0,
          846.0,
          845.0,
          847.0,
          847.0,
          846.0,
          845.0,
          844.0,
          845.0,
          845.0,
          845.0,
          845.0,
          845.0,
          845.0,
          846.0,
          847.0,
          847.0,
          847.0,
          846.0,
          846.0,
          844.0,
          844.0,
          844.0,
          845.0,
          844.0,
          844.0,
          845.0,
          844.0,
          845.0,
          844.0,
          844.0,
          847.0,
          846.0,
          845.0,
          845.0,
          845.0,
          846.0,
          845.0,
          845.0,
          846.0,
          846.0,
          846.0,
          845.0,
          846.0,
          847.0,
          846.0,
          845.0,
          845.0,
          845.0,
          844.0,
          844.0,
          845.0,
          845.0,
          845.0,
          845.0,
          844.0,
          845.0,
          846.0,
          846.0,
          845.0,
          845.0,
          845.0,
          845.0,
          847.0,
          846.0,
          845.0,
          845.0,
          845.0,
          846.0,
          846.0,
          846.0
        ],
        "WindowWidth": [
          1915.0,
          1914.0,
          1922.0,
          1915.0,
          1905.0,
          1899.0,
          1896.0,
          1898.0,
          1902.0,
          1905.0,
          1906.0,
          1914.0,
          1921.0,
          1912.0,
          1906.0,
          1905.0,
          1911.0,
          1915.0,
          1911.0,
          1914.0,
          1912.0,
          1904.0,
          1905.0,
          1902.0,
          1904.0,
          1906.0,
          1910.0,
          1910.0,
          1910.0,
          1911.0,
          1908.0,
          1909.0,
          1912.0,
          1911.0,
          1912.0,
          1911.0,
          1912.0,
          1911.0,
          1909.0,
          1913.0,
          1914.0,
          1913.0,
          1910.0,
          1913.0,
          1913.0,
          1911.0,
          1908.0,
          1906.0,
          1913.0,
          1915.0,
          1914.0,
          1902.0,
          1893.0,
          1893.0,
          1895.0,
          1901.0,
          1901.0,
          1905.0,
          1909.0,
          1908.0,
          1907.0,
          1911.0,
          1913.0,
          1914.0,
          1916.0,
          1923.0,
          1915.0,
          1906.0,
          1907.0,
          1902.0,
          1902.0,
          1899.0,
          1899.0,
          1901.0,
          1904.0,
          1906.0,
          1902.0,
          1904.0,
          1911.0,
          1909.0,
          1910.0,
          1909.0,
          1913.0,
          1914.0,
          1909.0,
          1905.0,
          1904.0,
          1907.0,
          1909.0,
          1907.0,
          1905.0,
          1906.0,
          1909.0,
          1909.0,
          1914.0,
          1914.0,
          1911.0,
          1913.0,
          1910.0,
          1904.0,
          1903.0,
          1904.0,
          1906.0,
          1903.0,
          1904.0,
          1906.0,
          1903.0,
          1906.0,
          1903.0,
          1907.0,
          1915.0,
          1910.0,
          1905.0,
          1906.0,
          1908.0,
          1908.0,
          1905.0,
          1906.0,
          1911.0,
          1908.0,
          1910.0,
          1906.0,
          1908.0,
          1912.0,
          1910.0,
          1905.0,
          1906.0,
          1904.0,
          1901.0,
          1902.0,
          1904.0,
          1905.0,
          1905.0,
          1904.0,
          1904.0,
          1907.0,
          1908.0,
          1910.0,
          1906.0,
          1904.0,
          1905.0,
          1906.0,
          1912.0,
          1909.0,
          1907.0,
          1905.0,
          1906.0,
          1909.0,
          1910.0,
          1910.0
        ]
      },
      "slices": {}
    }
  },
  "dummy_trs": 0,
  "dvars_nstd": 77.49187602637588,
  "dvars_std": 1.085153975704698,
  "dvars_vstd": 1.0240677951006711,
  "efc": 0.5724363697227233,
  "fber": 346.3670349121094,
  "fd_mean": 0.08023508467105346,
  "fd_num": 12,
  "fd_perc": 8.0,
  "fwhm_avg": 2.8827719343693707,
  "fwhm_x": 2.7858495862158477,
  "fwhm_y": 2.860666281954526,
  "fwhm_z": 3.0017999349377384,
  "gcor": 0.00378928,
  "gsr_x": -0.0006136914016678929,
  "gsr_y": 0.044566430151462555,
  "provenance": {
    "md5sum": "582eff5c3909b902c731c5cf67794a30",
    "settings": {
      "fd_thres": 0.2,
      "testing": false
    },
    "software": "mriqc",
    "version": "23.0.1",
    "webapi_port": null,
    "webapi_url": "https://mriqc.nimh.nih.gov/api/v1"
  },
  "size_t": 150,
  "size_x": 188,
  "size_y": 188,
  "size_z": 46,
  "snr": 2.5160206627279114,
  "spacing_tr": 2.5999999046325684,
  "spacing_x": 1.0957447290420532,
  "spacing_y": 1.0957447290420532,
  "spacing_z": 1.100000023841858,
  "summary_bg_k": 54.493671367240836,
  "summary_bg_mad": 23.68209664679469,
  "summary_bg_mean": 85.1342544555664,
  "summary_bg_median": 49.30666732788086,
  "summary_bg_n": 1061273.0,
  "summary_bg_p05": 31.226667404174805,
  "summary_bg_p95": 250.3693359374994,
  "summary_bg_stdv": 112.8737564086914,
