{
  "aor": 0.0009794000000000003,
  "aqi": 0.017906590666666666,
  "bids_meta": {
    "AcquisitionMatrixPE": 188,
    "AcquisitionNumber": 1,
    "AcquisitionTime": "14:52:15.250000",
    "BandwidthPerPixelPhaseEncode": 19.46,
    "BaseResolution": 188,
    "ConversionSoftware": "dcm2niix",
    "ConversionSoftwareVersion": "v1.0.20180606 GCC4.8.5",
    "DelayTime": 1.2,
    "DerivedVendorReportedEchoSpacing": 0.000820013,
    "DeviceSerialNumber": "18930",
    "DwellTime": 1.9e-06,
    "EchoTime": 0.02,
    "EffectiveEchoSpacing": 0.000273338,
    "FlipAngle": 80,
    "ImageComments": "Unaliased_MB2_PE2",
    "ImageOrientationPatientDICOM": [
      0.997694,
      0.0552999,
      -0.0393616,
      -0.0469247,
      0.142908,
      -0.988623
    ],
    "ImageType": [
      "ORIGINAL",
      "PRIMARY",
      "M",
      "MB",
      "ND",
      "MOSAIC"
    ],
    "InPlanePhaseEncodingDirectionDICOM": "COL",
    "InstitutionAddress": "Oxfordlaan_55_Maastricht_753AAF_Limburg_NL_6229_EV",
    "InstitutionName": "Scannexus",
    "InstitutionalDepartmentName": "MRI_7T",
    "MRAcquisitionType": "2D",
    "MagneticFieldStrength": 6.98,
    "Manufacturer": "Siemens",
    "ManufacturersModelName": "Investigational_Device_7T",
    "Modality": "MR",
    "MultibandAccelerationFactor": 2,
    "ParallelReductionFactorInPlane": 3,
    "PartialFourier": 0.75,
    "PatientPosition": "HFS",
    "PercentPhaseFOV": 100,
    "PhaseEncodingDirection": "j",
    "PhaseEncodingSteps": 141,
    "PhaseResolution": 1,
    "PixelBandwidth": 1400,
    "ProcedureStepDescription": "FeDem_Faruk",
    "ProtocolName": "cmrr_mbep2d_bold_AP_run1",
    "PulseSequenceDetails": "%CustomerSeq%_cmrr_mbep2d_bold",
    "ReceiveCoilName": "32Ch_Head_7T",
    "ReconMatrixPE": 188,
    "RepetitionTime": 2.6,
    "SAR": 0.0579581,
    "ScanOptions": "PFP_FS",
    "ScanningSequence": "EP",
    "SequenceName": "epfid2d1_188",
    "SequenceVariant": "SK_SS",
    "SeriesDescription": "cmrr_mbep2d_bold_AP_run1",
    "SeriesNumber": 12,
    "ShimSetting": [
      74,
      22,
      526,
      331,
      -94,
      30,
      178,
      188
    ],
    "SliceThickness": 1.1,
    "SliceTiming": [
      0,
      0.7325,
      0.0625,
      0.795,
      0.1225,
      0.855,
      0.185,
      0.9175,
      0.245,
      0.9775,
      0.305,
      1.04,
      0.3675,
      1.1,
      0.4275,
      1.1625,
      0.49,
      1.2225,
      0.55,
      1.2825,
      0.6125,
      1.345,
      0.6725,
      0,
      0.7325,
      0.0625,
      0.795,
      0.1225,
      0.855,
      0.185,
      0.9175,
      0.245,
      0.9775,
      0.305,
      1.04,
      0.3675,
      1.1,
      0.4275,
      1.1625,
      0.49,
      1.2225,
      0.55,
      1.2825,
      0.6125,
      1.345,
      0.6725
    ],
    "SoftwareVersions": "syngo_MR_B17",
    "SpacingBetweenSlices": 1.1,
    "StationName": "MRC18930",
    "TaskName": "auditory",
    "TotalReadoutTime": 0.0511141,
    "TxRefAmp": 210,
    "dataset": "ds001942",
    "dcmmeta_affine": [
      [
        -1.0932174921035767,
        -0.051417529582977295,
        0.053950224071741104,
        101.08625793457031
      ],
      [
        -0.06059454008936882,
        0.1565903127193451,
        -1.0870089530944824,
        41.250267028808594
      ],
      [
        -0.043130211532115936,
        1.0832784175872803,
        0.15969029068946838,
        -112.83697509765625
      ],
      [
        0.0,
        0.0,
        0.0,
        1.0
      ]
    ],
    "dcmmeta_reorient_transform": [
      [
        0.0,
        -1.0,
        0.0,
        187.0
      ],
      [
        1.0,
        0.0,
        0.0,
        0.0
      ],
      [
        0.0,
        0.0,
        1.0,
        0.0
      ],
      [
        0.0,
        0.0,
        0.0,
        1.0
      ]
    ],
    "dcmmeta_shape": [
      188,
      188,
      46,
      150
    ],
    "dcmmeta_slice_dim": 2,
    "dcmmeta_version": 0.6,
    "global": {
      "const": {
        "AcquisitionMatrix": [
          188,
          0,
          0,
          188
        ],
        "AngioFlag": "N",
        "BitsAllocated": 16,
        "BitsStored": 12,
        "Columns": 1316,
        "EchoNumbers": 1,
        "EchoTime": 20.0,
        "EchoTrainLength": 1,
        "FlipAngle": 80.0,
        "HighBit": 11,
        "ImageOrientationPatient": [
          0.99769363669209,
          0.05529987056619,
          -0.0393615500135,
          -0.0469247344932,
          0.14290765139171,
          -0.9886230183778
        ],
        "ImagePositionPatient": [
          -679.04638794689,
          -193.02490866948,
          725.0305860642
        ],
        "ImageType": [
          "ORIGINAL",
          "PRIMARY",
          "M",
          "MB",
          "ND",
          "MOSAIC"
        ],
        "ImagedNucleus": "1H",
        "ImagingFrequency": 297.205645,
        "InPlanePhaseEncodingDirection": "COL",
        "LargestImagePixelValue": 4095,
        "MRAcquisitionType": "2D",
        "MagneticFieldStrength": 6.98,
        "Manufacturer": "SIEMENS",
        "ManufacturerModelName": "Investigational_Device_7T",
        "Modality": "MR",
        "NumberOfAverages": 1.0,
        "NumberOfPhaseEncodingSteps": 141,
        "PercentPhaseFieldOfView": 100.0,
        "PercentSampling": 100.0,
        "PerformedProcedureStepStartTime": "142439.593000",
        "PhotometricInterpretation": "MONOCHROME2",
        "PixelBandwidth": 1400.0,
        "PixelRepresentation": 0,
        "PixelSpacing": [
          1.0957447290421,
          1.0957447290421
        ],
        "ProtocolName": "cmrr_mbep2d_bold_AP_run1",
        "RepetitionTime": 2600.0,
        "Rows": 1316,
        "SAR": 0.05795813465365,
        "SamplesPerPixel": 1,
        "ScanOptions": [
          "PFP",
          "FS"
        ],
        "ScanningSequence": "EP",
        "SequenceName": "epfid2d1_188",
        "SequenceVariant": [
          "SK",
          "SS"
        ],
        "SeriesDescription": "cmrr_mbep2d_bold_AP_run1",
        "SeriesNumber": 12,
        "SeriesTime": "145224.625000",
        "SliceLocation": -52.186137634346,
        "SliceThickness": 1.1000000238419,
        "SmallestImagePixelValue": 0,
        "SoftwareVersions": "syngo MR B17",
        "SpacingBetweenSlices": 1.1000000019064,
        "SpecificCharacterSet": "ISO_IR 100",
        "StudyID": "1",
        "StudyTime": "142439.546000",
        "TransmitCoilName": "32Ch_Head_7T",
        "VariableFlipAngleFlag": "N",
        "WindowCenterWidthExplanation": "Algo1",
        "dBdt": 0.0
      },
      "slices": {}
    },
    "modality": "bold",
    "run_id": 1,
    "session_id": "SES03",
    "subject_id": "S07",
    "task_id": "auditory",
    "time": {
      "samples": {
        "AcquisitionNumber": [
          1,
          2,
          3,
          4,
          5,
          6,
          7,
          8,
          9,
          10,
          11,
          12,
          13,
          14,
          15,
          16,
          17,
          18,
          19,
          20,
          21,
          22,
          23,
          24,
          25,
          26,
          27,
          28,
          29,
          30,
          31,
          32,
          33,
          34,
          35,
          36,
          37,
          38,
          39,
          40,
          41,
          42,
          43,
          44,
          45,
          46,
          47,
          48,
          49,
          50,
          51,
          52,
          53,
          54,
          55,
          56,
          57,
          58,
          59,
          60,
          61,
          62,
          63,
          64,
          65,
          66,
          67,
          68,
          69,
          70,
          71,
          72,
          73,
          74,
          75,
          76,
          77,
          78,
          79,
          80,
          81,
          82,
          83,
          84,
          85,
          86,
          87,
          88,
          89,
          90,
          91,
          92,
          93,
          94,
          95,
          96,
          97,
          98,
          99,
          100,
          101,
          102,
          103,
          104,
          105,
          106,
          107,
          108,
          109,
          110,
          111,
          112,
          113,
          114,
          115,
          116,
          117,
          118,
          119,
          120,
          121,
          122,
          123,
          124,
          125,
          126,
          127,
          128,
          129,
          130,
          131,
          132,
          133,
          134,
          135,
          136,
          137,
          138,
          139,
          140,
          141,
          142,
          143,
          144,
          145,
          146,
          147,
          148,
          149,
          150
        ],
        "AcquisitionTime": [
          "145215.250000",
          "145217.860000",
          "145220.472500",
          "145223.082500",
          "145225.692500",
          "145228.302500",
          "145230.912500",
          "145233.522500",
          "145236.135000",
          "145238.745000",
          "145241.355000",
          "145243.965000",
          "145246.575000",
          "145249.185000",
          "145251.797500",
          "145254.407500",
          "145257.017500",
          "145259.627500",
          "145302.237500",
          "145304.850000",
          "145307.460000",
          "145310.070000",
          "145312.680000",
          "145315.290000",
          "145317.900000",
          "145320.512500",
          "145323.122500",
          "145325.732500",
          "145328.342500",
          "145330.952500",
          "145333.562500",
          "145336.175000",
          "145338.785000",
          "145341.395000",
          "145344.005000",
          "145346.615000",
          "145349.227500",
          "145351.837500",
          "145354.447500",
          "145357.057500",
          "145359.667500",
          "145402.277500",
          "145404.890000",
          "145407.500000",
          "145410.110000",
          "145412.720000",
          "145415.330000",
          "145417.940000",
          "145420.552500",
          "145423.162500",
          "145425.772500",
          "145428.382500",
          "145430.992500",
          "145433.605000",
          "145436.215000",
          "145438.825000",
          "145441.435000",
          "145444.045000",
          "145446.655000",
          "145449.267500",
          "145451.877500",
          "145454.487500",
          "145457.097500",
          "145459.707500",
          "145502.320000",
          "145504.930000",
          "145507.540000",
          "145510.150000",
          "145512.760000",
          "145515.370000",
          "145517.982500",
          "145520.592500",
          "145523.202500",
          "145525.812500",
          "145528.422500",
          "145531.032500",
          "145533.645000",
          "145536.255000",
          "145538.865000",
          "145541.475000",
          "145544.085000",
          "145546.697500",
          "145549.307500",
          "145551.917500",
          "145554.527500",
          "145557.137500",
          "145559.747500",
          "145602.360000",
          "145604.970000",
          "145607.580000",
          "145610.190000",
          "145612.800000",
          "145615.410000",
          "145618.022500",
          "145620.632500",
          "145623.242500",
          "145625.852500",
          "145628.462500",
          "145631.075000",
          "145633.685000",
          "145636.295000",
          "145638.905000",
          "145641.515000",
          "145644.125000",
          "145646.737500",
          "145649.347500",
          "145651.957500",
          "145654.567500",
          "145657.177500",
          "145659.787500",
          "145702.400000",
          "145705.010000",
          "145707.620000",
          "145710.230000",
          "145712.840000",
          "145715.452500",
          "145718.062500",
          "145720.672500",
          "145723.282500",
          "145725.892500",
          "145728.502500",
          "145731.115000",
          "145733.725000",
          "145736.335000",
          "145738.945000",
          "145741.555000",
          "145744.165000",
          "145746.777500",
          "145749.387500",
          "145751.997500",
          "145754.607500",
          "145757.217500",
          "145759.830000",
          "145802.440000",
          "145805.050000",
          "145807.660000",
          "145810.270000",
          "145812.880000",
          "145815.492500",
          "145818.102500",
          "145820.712500",
          "145823.322500",
          "145825.932500",
          "145828.542500",
          "145831.155000",
          "145833.765000",
          "145836.375000",
          "145838.985000",
          "145841.595000",
          "145844.207500"
        ],
        "ContentTime": [
          "145224.625000",
          "145225.109000",
          "145225.609000",
          "145227.609000",
          "145230.109000",
          "145233.109000",
          "145235.609000",
          "145238.109000",
          "145240.609000",
          "145243.109000",
          "145246.109000",
          "145248.609000",
          "145251.109000",
          "145253.609000",
          "145256.109000",
          "145259.109000",
          "145301.609000",
          "145304.109000",
          "145306.609000",
          "145309.109000",
          "145312.109000",
          "145314.609000",
          "145317.109000",
          "145319.609000",
          "145322.109000",
          "145325.109000",
          "145327.609000",
          "145330.109000",
          "145332.609000",
          "145335.109000",
          "145338.109000",
          "145340.609000",
          "145343.109000",
          "145345.609000",
          "145348.109000",
          "145351.109000",
          "145353.609000",
          "145356.109000",
          "145358.609000",
          "145401.125000",
          "145404.109000",
          "145406.609000",
          "145409.109000",
          "145411.609000",
          "145414.109000",
          "145417.109000",
          "145419.609000",
          "145422.109000",
          "145424.609000",
          "145427.109000",
          "145430.109000",
          "145432.609000",
          "145435.109000",
          "145437.609000",
          "145440.109000",
          "145443.109000",
          "145445.609000",
          "145448.109000",
          "145450.609000",
          "145453.109000",
          "145456.109000",
          "145458.609000",
          "145501.109000",
          "145503.609000",
          "145506.109000",
          "145509.109000",
          "145511.609000",
          "145514.109000",
          "145516.609000",
          "145519.109000",
          "145522.109000",
          "145524.609000",
          "145527.109000",
          "145529.609000",
          "145532.109000",
          "145535.109000",
          "145537.609000",
          "145540.109000",
          "145542.609000",
          "145545.109000",
          "145548.109000",
          "145550.609000",
          "145553.109000",
          "145555.609000",
          "145558.109000",
          "145601.109000",
          "145603.609000",
          "145606.109000",
          "145608.609000",
          "145611.109000",
          "145614.109000",
          "145616.609000",
          "145619.109000",
          "145621.609000",
          "145624.109000",
          "145627.109000",
          "145629.609000",
          "145632.109000",
          "145634.609000",
          "145637.109000",
          "145640.109000",
          "145642.609000",
          "145645.109000",
          "145647.609000",
          "145650.109000",
          "145653.109000",
          "145655.609000",
          "145658.109000",
          "145700.609000",
          "145703.109000",
          "145706.109000",
          "145708.609000",
          "145711.109000",
          "145713.609000",
          "145716.109000",
          "145719.109000",
          "145721.609000",
          "145724.109000",
          "145726.609000",
          "145729.109000",
          "145732.109000",
          "145734.609000",
          "145737.109000",
          "145739.609000",
          "145742.109000",
          "145745.109000",
          "145747.609000",
          "145750.109000",
          "145752.609000",
          "145755.109000",
          "145758.109000",
          "145800.609000",
          "145803.109000",
          "145805.609000",
          "145808.109000",
          "145811.109000",
          "145813.625000",
          "145816.109000",
          "145818.609000",
          "145821.109000",
          "145824.109000",
          "145826.609000",
          "145829.109000",
          "145831.609000",
          "145834.109000",
          "145837.109000",
          "145839.609000",
          "145842.109000",
          "145844.609000",
          "145852.031000"
        ],
        "InstanceCreationTime": [
          "145224.625000",
          "145225.109000",
          "145225.609000",
          "145227.609000",
          "145230.109000",
          "145233.109000",
          "145235.609000",
          "145238.109000",
          "145240.609000",
          "145243.109000",
          "145246.109000",
          "145248.609000",
          "145251.109000",
          "145253.609000",
          "145256.109000",
          "145259.109000",
          "145301.609000",
          "145304.109000",
          "145306.609000",
          "145309.109000",
          "145312.109000",
          "145314.609000",
          "145317.109000",
          "145319.609000",
          "145322.109000",
          "145325.109000",
          "145327.609000",
          "145330.109000",
          "145332.609000",
          "145335.109000",
          "145338.109000",
          "145340.609000",
          "145343.109000",
          "145345.609000",
          "145348.109000",
          "145351.109000",
          "145353.609000",
          "145356.109000",
          "145358.609000",
          "145401.125000",
          "145404.109000",
          "145406.609000",
          "145409.109000",
          "145411.609000",
          "145414.109000",
          "145417.109000",
          "145419.609000",
          "145422.109000",
          "145424.609000",
          "145427.109000",
          "145430.109000",
          "145432.609000",
          "145435.109000",
          "145437.609000",
          "145440.109000",
          "145443.109000",
          "145445.609000",
          "145448.109000",
          "145450.609000",
          "145453.109000",
          "145456.109000",
          "145458.609000",
          "145501.109000",
          "145503.609000",
          "145506.109000",
          "145509.109000",
          "145511.609000",
          "145514.109000",
          "145516.609000",
          "145519.109000",
          "145522.109000",
          "145524.609000",
          "145527.109000",
          "145529.609000",
          "145532.109000",
          "145535.109000",
          "145537.609000",
          "145540.109000",
          "145542.609000",
          "145545.109000",
          "145548.109000",
          "145550.609000",
          "145553.109000",
          "145555.609000",
          "145558.109000",
          "145601.109000",
          "145603.609000",
          "145606.109000",
          "145608.609000",
          "145611.109000",
          "145614.109000",
          "145616.609000",
          "145619.109000",
          "145621.609000",
          "145624.109000",
          "145627.109000",
          "145629.609000",
          "145632.109000",
          "145634.609000",
          "145637.109000",
          "145640.109000",
          "145642.609000",
          "145645.109000",
          "145647.609000",
          "145650.109000",
          "145653.109000",
          "145655.609000",
          "145658.109000",
          "145700.609000",
          "145703.109000",
          "145706.109000",
          "145708.609000",
          "145711.109000",
          "145713.609000",
          "145716.109000",
          "145719.109000",
          "145721.609000",
          "145724.109000",
          "145726.609000",
          "145729.109000",
          "145732.109000",
          "145734.609000",
          "145737.109000",
          "145739.609000",
          "145742.109000",
          "145745.109000",
          "145747.609000",
          "145750.109000",
          "145752.609000",
          "145755.109000",
          "145758.109000",
          "145800.609000",
          "145803.109000",
          "145805.609000",
          "145808.109000",
          "145811.109000",
          "145813.625000",
          "145816.109000",
          "145818.609000",
          "145821.109000",
          "145824.109000",
          "145826.609000",
          "145829.109000",
          "145831.609000",
          "145834.109000",
          "145837.109000",
          "145839.609000",
          "145842.109000",
          "145844.609000",
          "145852.031000"
        ],
        "InstanceNumber": [
          1,
          2,
          3,
          4,
          5,
          6,
          7,
          8,
          9,
          10,
          11,
          12,
          13,
          14,
          15,
          16,
          17,
          18,
          19,
          20,
          21,
          22,
          23,
          24,
          25,
          26,
          27,
          28,
          29,
          30,
          31,
          32,
          33,
          34,
          35,
          36,
          37,
          38,
          39,
          40,
          41,
          42,
          43,
          44,
          45,
          46,
          47,
          48,
          49,
          50,
          51,
          52,
          53,
          54,
          55,
          56,
          57,
          58,
          59,
          60,
          61,
          62,
          63,
          64,
          65,
          66,
          67,
          68,
          69,
          70,
          71,
          72,
          73,
          74,
          75,
          76,
          77,
          78,
          79,
          80,
          81,
          82,
          83,
          84,
          85,
          86,
          87,
          88,
          89,
          90,
          91,
          92,
          93,
          94,
          95,
          96,
          97,
          98,
          99,
          100,
          101,
          102,
          103,
          104,
          105,
          106,
          107,
          108,
          109,
          110,
          111,
          112,
          113,
          114,
          115,
          116,
          117,
          118,
          119,
          120,
          121,
          122,
          123,
          124,
          125,
          126,
          127,
          128,
          129,
          130,
          131,
          132,
          133,
          134,
          135,
          136,
          137,
          138,
          139,
          140,
          141,
          142,
          143,
          144,
          145,
          146,
          147,
          148,
          149,
          150
        ],
        "WindowCenter": [
          848.0,
          848.0,
          848.0,
          847.0,
          846.0,
          847.0,
          846.0,
          847.0,
          848.0,
          848.0,
          847.0,
          846.0,
          847.0,
          847.0,
          847.0,
          847.0,
          847.0,
          848.0,
          847.0,
          848.0,
          848.0,
          848.0,
          848.0,
          847.0,
          848.0,
          847.0,
          848.0,
          849.0,
          847.0,
          847.0,
          847.0,
          848.0,
          848.0,
          848.0,
          847.0,
          848.0,
          847.0,
          847.0,
          848.0,
          849.0,
          848.0,
          849.0,
          848.0,
          847.0,
          847.0,
          847.0,
          848.0,
          849.0,
          848.0,
          848.0,
          848.0,
          847.0,
          848.0,
          848.0,
          847.0,
          847.0,
          848.0,
          848.0,
          849.0,
          847.0,
          847.0,
          846.0,
          847.0,
          847.0,
          847.0,
          846.0,
          846.0,
          847.0,
          849.0,
          849.0,
          847.0,
          846.0,
          846.0,
          846.0,
          847.0,
          847.0,
          848.0,
          847.0,
          847.0,
          848.0,
          848.0,
          848.0,
          847.0,
          847.0,
          847.0,
          847.0,
          848.0,
          847.0,
          848.0,
          847.0,
          847.0,
          848.0,
          849.0,
          847.0,
          848.0,
          848.0,
          847.0,
          847.0,
          847.0,
          847.0,
          847.0,
          847.0,
          847.0,
          847.0,
          847.0,
          847.0,
          848.0,
          848.0,
          848.0,
          850.0,
          849.0,
          848.0,
          846.0,
          844.0,
          844.0,
          845.0,
          845.0,
          846.0,
          846.0,
          847.0,
          848.0,
          848.0,
          847.0,
          848.0,
          848.0,
          848.0,
          848.0,
          848.0,
          848.0,
          847.0,
          847.0,
          845.0,
          848.0,
          847.0,
          847.0,
          845.0,
          846.0,
          848.0,
          847.0,
          846.0,
          847.0,
          847.0,
          847.0,
          848.0,
          847.0,
          847.0,
          847.0,
          848.0,
          848.0,
          848.0
        ],
        "WindowWidth": [
          1916.0,
          1915.0,
          1916.0,
          1912.0,
          1909.0,
          1911.0,
          1908.0,
          1913.0,
          1916.0,
          1914.0,
          1911.0,
          1909.0,
          1911.0,
          1913.0,
          1913.0,
          1914.0,
          1913.0,
          1917.0,
          1914.0,
          1915.0,
          1915.0,
          1915.0,
          1917.0,
          1913.0,
          1915.0,
          1913.0,
          1919.0,
          1920.0,
          1911.0,
          1914.0,
          1913.0,
          1916.0,
          1915.0,
          1915.0,
          1913.0,
          1915.0,
          1913.0,
          1914.0,
          1916.0,
          1918.0,
          1917.0,
          1919.0,
          1917.0,
          1914.0,
          1912.0,
          1914.0,
          1917.0,
          1918.0,
          1917.0,
          1916.0,
          1916.0,
          1914.0,
          1916.0,
          1917.0,
          1912.0,
          1913.0,
          1915.0,
          1916.0,
          1919.0,
          1913.0,
          1914.0,
          1910.0,
          1914.0,
          1915.0,
          1912.0,
          1910.0,
          1910.0,
          1914.0,
          1922.0,
          1920.0,
          1913.0,
          1910.0,
          1911.0,
          1910.0,
          1912.0,
          1915.0,
          1916.0,
          1911.0,
          1912.0,
          1916.0,
          1916.0,
          1917.0,
          1913.0,
          1915.0,
          1913.0,
          1913.0,
          1915.0,
          1914.0,
          1915.0,
          1915.0,
          1913.0,
          1916.0,
          1919.0,
          1913.0,
          1915.0,
          1917.0,
          1912.0,
          1913.0,
          1914.0,
          1914.0,
          1914.0,
          1913.0,
          1912.0,
          1911.0,
          1914.0,
          1914.0,
          1915.0,
          1915.0,
          1917.0,
          1924.0,
          1919.0,
          1917.0,
          1907.0,
          1902.0,
          1901.0,
          1905.0,
          1906.0,
          1908.0,
          1908.0,
          1912.0,
          1916.0,
          1916.0,
          1913.0,
          1915.0,
          1918.0,
          1918.0,
          1916.0,
          1916.0,
          1916.0,
          1913.0,
          1913.0,
          1905.0,
          1915.0,
          1911.0,
          1909.0,
          1904.0,
          1909.0,
          1915.0,
          1912.0,
          1908.0,
          1911.0,
          1911.0,
          1913.0,
          1913.0,
          1913.0,
          1912.0,
          1913.0,
          1914.0,
          1914.0,
          1917.0
        ]
      },
      "slices": {}
    }
  },
  "dummy_trs": 0,
  "dvars_nstd": 76.53508978704693,
  "dvars_std": 1.0766432455704695,
  "dvars_vstd": 1.0144396900671142,
  "efc": 0.5727211091316455,
  "fber": 343.0811767578125,
  "fd_mean": 0.06026641250721263,
  "fd_num": 9,
  "fd_perc": 6.0,
  "fwhm_avg": 2.901544502138727,
  "fwhm_x": 2.8104173521256453,
  "fwhm_y": 2.8665253108230586,
  "fwhm_z": 3.0276908434674774,
  "gcor": 0.00142361,
  "gsr_x": -0.0014238699804991484,
  "gsr_y": 0.04566189646720886,
  "provenance": {
    "md5sum": "976b38a2c8c96f9ae5b9fd1924eec1d2",
    "settings": {
      "fd_thres": 0.2,
      "testing": false
    },
    "software": "mriqc",
    "version": "23.0.1",
    "webapi_port": null,
    "webapi_url": "https://mriqc.nimh.nih.gov/api/v1"
  },
  "size_t": 150,
  "size_x": 188,
  "size_y": 188,
  "size_z": 46,
  "snr": 2.5209259162682556,
  "spacing_tr": 2.5999999046325684,
  "spacing_x": 1.0957447290420532,
  "spacing_y": 1.0957447290420532,
  "spacing_z": 1.100000023841858,
  "summary_bg_k": 53.234809762173676,
  "summary_bg_mad": 24.324564772006717,
  "summary_bg_mean": 85.6431884765625,
  "summary_bg_median": 49.7933349609375,
  "summary_bg_n": 1061536.0,
  "summary_bg_p05": 31.30000114440918,
  "summary_bg_p95": 249.22000122070312,
