{
  "aor": 0.0005730872483221476,
  "aqi": 0.010849293020134229,
  "bids_meta": {
    "AcquisitionMatrixPE": 188,
    "AcquisitionNumber": 1,
    "AcquisitionTime": "19:18:6.172500",
    "BandwidthPerPixelPhaseEncode": 19.46,
    "BaseResolution": 188,
    "CogAtlasID": "TODO",
    "ConversionSoftware": "dcm2niix",
    "ConversionSoftwareVersion": "v1.0.20180606 GCC4.8.5",
    "DelayTime": 1.2,
    "DerivedVendorReportedEchoSpacing": 0.000820013,
    "DeviceSerialNumber": "18930",
    "DwellTime": 1.9e-06,
    "EchoTime": 0.02,
    "EffectiveEchoSpacing": 0.000273338,
    "FlipAngle": 80,
    "ImageComments": "Unaliased_MB2_PE2",
    "ImageOrientationPatientDICOM": [
      0.999286,
      0.00236239,
      0.0377002,
      0.036887,
      0.154005,
      -0.987381
    ],
    "ImageType": [
      "ORIGINAL",
      "PRIMARY",
      "M",
      "MB",
      "ND",
      "MOSAIC"
    ],
    "InPlanePhaseEncodingDirectionDICOM": "COL",
    "InstitutionAddress": "Oxfordlaan_55_Maastricht_753AAF_Limburg_NL_6229_EV",
    "InstitutionName": "Scannexus",
    "InstitutionalDepartmentName": "MRI_7T",
    "MRAcquisitionType": "2D",
    "MagneticFieldStrength": 6.98,
    "Manufacturer": "Siemens",
    "ManufacturersModelName": "Investigational_Device_7T",
    "Modality": "MR",
    "MultibandAccelerationFactor": 2,
    "ParallelReductionFactorInPlane": 3,
    "PartialFourier": 0.75,
    "PatientPosition": "HFS",
    "PercentPhaseFOV": 100,
    "PhaseEncodingDirection": "j",
    "PhaseEncodingSteps": 141,
    "PhaseResolution": 1,
    "PixelBandwidth": 1400,
    "ProcedureStepDescription": "FeDem_Faruk",
    "ProtocolName": "cmrr_mbep2d_bold_AP_run12",
    "PulseSequenceDetails": "%CustomerSeq%_cmrr_mbep2d_bold",
    "ReceiveCoilName": "32Ch_Head_7T",
    "ReconMatrixPE": 188,
    "RepetitionTime": 2.6,
    "SAR": 0.0639682,
    "ScanOptions": "PFP_FS",
    "ScanningSequence": "EP",
    "SequenceName": "epfid2d1_188",
    "SequenceVariant": "SK_SS",
    "SeriesDescription": "cmrr_mbep2d_bold_AP_run12",
    "SeriesNumber": 25,
    "ShimSetting": [
      99,
      -96,
      385,
      439,
      -181,
      19,
      196,
      170
    ],
    "SliceThickness": 1.1,
    "SliceTiming": [
      0,
      0.7325,
      0.06,
      0.7925,
      0.12,
      0.855,
      0.1825,
      0.915,
      0.2425,
      0.9775,
      0.305,
      1.0375,
      0.365,
      1.1,
      0.4275,
      1.16,
      0.4875,
      1.22,
      0.55,
      1.2825,
      0.61,
      1.3425,
      0.67,
      0,
      0.7325,
      0.06,
      0.7925,
      0.12,
      0.855,
      0.1825,
      0.915,
      0.2425,
      0.9775,
      0.305,
      1.0375,
      0.365,
      1.1,
      0.4275,
      1.16,
      0.4875,
      1.22,
      0.55,
      1.2825,
      0.61,
      1.3425,
      0.67
    ],
    "SoftwareVersions": "syngo_MR_B17",
    "SpacingBetweenSlices": 1.1,
    "StationName": "MRC18930",
    "TaskName": "auditory",
    "TotalReadoutTime": 0.0511141,
    "TxRefAmp": 211,
    "dataset": "ds001942",
    "dcmmeta_affine": [
      [
        -1.0949627161026,
        0.04041874036192894,
        0.008952437900006771,
        97.66889953613281
      ],
      [
        -0.002588572446256876,
        0.16874977946281433,
        -1.0868732929229736,
        28.965768814086914
      ],
      [
        0.04130982235074043,
        1.0819178819656372,
        0.1691882312297821,
        -125.53909301757812
      ],
      [
        0.0,
        0.0,
        0.0,
        1.0
      ]
    ],
    "dcmmeta_reorient_transform": [
      [
        0.0,
        -1.0,
        0.0,
        187.0
      ],
      [
        1.0,
        0.0,
        0.0,
        0.0
      ],
      [
        0.0,
        0.0,
        1.0,
        0.0
      ],
      [
        0.0,
        0.0,
        0.0,
        1.0
      ]
    ],
    "dcmmeta_shape": [
      188,
      188,
      46,
      150
    ],
    "dcmmeta_slice_dim": 2,
    "dcmmeta_version": 0.6,
    "global": {
      "const": {
        "AcquisitionMatrix": [
          188,
          0,
          0,
          188
        ],
        "AngioFlag": "N",
        "BitsAllocated": 16,
        "BitsStored": 12,
        "Columns": 1316,
        "EchoNumbers": 1,
        "EchoTime": 20.0,
        "EchoTrainLength": 1,
        "FlipAngle": 80.0,
        "HighBit": 11,
        "ImageOrientationPatient": [
          0.9992863014427,
          0.0023623863258,
          0.03770022386964,
          0.03688700540101,
          0.15400465001157,
          -0.9873813430521
        ],
        "ImagePositionPatient": [
          -745.58233320233,
          -157.15681018518,
          663.68251557367
        ],
        "ImageType": [
          "ORIGINAL",
          "PRIMARY",
          "M",
          "MB",
          "ND",
          "MOSAIC"
        ],
        "ImagedNucleus": "1H",
        "ImagingFrequency": 297.205624,
        "InPlanePhaseEncodingDirection": "COL",
        "LargestImagePixelValue": 4095,
        "MRAcquisitionType": "2D",
        "MagneticFieldStrength": 6.98,
        "Manufacturer": "SIEMENS",
        "ManufacturerModelName": "Investigational_Device_7T",
        "Modality": "MR",
        "NumberOfAverages": 1.0,
        "NumberOfPhaseEncodingSteps": 141,
        "PercentPhaseFieldOfView": 100.0,
        "PercentSampling": 100.0,
        "PerformedProcedureStepStartTime": "172433.343000",
        "PhotometricInterpretation": "MONOCHROME2",
        "PixelBandwidth": 1400.0,
        "PixelRepresentation": 0,
        "PixelSpacing": [
          1.0957447290421,
          1.0957447290421
        ],
        "ProtocolName": "cmrr_mbep2d_bold_AP_run12",
        "RepetitionTime": 2600.0,
        "Rows": 1316,
        "SAR": 0.06396815541113,
        "SamplesPerPixel": 1,
        "ScanOptions": [
          "PFP",
          "FS"
        ],
        "ScanningSequence": "EP",
        "SequenceName": "epfid2d1_188",
        "SequenceVariant": [
          "SK",
          "SS"
        ],
        "SeriesDescription": "cmrr_mbep2d_bold_AP_run12",
        "SeriesNumber": 25,
        "SeriesTime": "191816.125000",
        "SliceLocation": -47.134106943425,
        "SliceThickness": 1.1000000238419,
        "SmallestImagePixelValue": 0,
        "SoftwareVersions": "syngo MR B17",
        "SpacingBetweenSlices": 1.0999992311947,
        "SpecificCharacterSet": "ISO_IR 100",
        "StudyID": "1",
        "StudyTime": "172433.281000",
        "TransmitCoilName": "32Ch_Head_7T",
        "VariableFlipAngleFlag": "N",
        "WindowCenterWidthExplanation": "Algo1",
        "dBdt": 0.0
      },
      "slices": {}
    },
    "modality": "bold",
    "run_id": 12,
    "session_id": "SES03",
    "subject_id": "S10",
    "task_id": "auditory",
    "time": {
      "samples": {
        "AcquisitionNumber": [
          1,
          2,
          3,
          4,
          5,
          6,
          7,
          8,
          9,
          10,
          11,
          12,
          13,
          14,
          15,
          16,
          17,
          18,
          19,
          20,
          21,
          22,
          23,
          24,
          25,
          26,
          27,
          28,
          29,
          30,
          31,
          32,
          33,
          34,
          35,
          36,
          37,
          38,
          39,
          40,
          41,
          42,
          43,
          44,
          45,
          46,
          47,
          48,
          49,
          50,
          51,
          52,
          53,
          54,
          55,
          56,
          57,
          58,
          59,
          60,
          61,
          62,
          63,
          64,
          65,
          66,
          67,
          68,
          69,
          70,
          71,
          72,
          73,
          74,
          75,
          76,
          77,
          78,
          79,
          80,
          81,
          82,
          83,
          84,
          85,
          86,
          87,
          88,
          89,
          90,
          91,
          92,
          93,
          94,
          95,
          96,
          97,
          98,
          99,
          100,
          101,
          102,
          103,
          104,
          105,
          106,
          107,
          108,
          109,
          110,
          111,
          112,
          113,
          114,
          115,
          116,
          117,
          118,
          119,
          120,
          121,
          122,
          123,
          124,
          125,
          126,
          127,
          128,
          129,
          130,
          131,
          132,
          133,
          134,
          135,
          136,
          137,
          138,
          139,
          140,
          141,
          142,
          143,
          144,
          145,
          146,
          147,
          148,
          149,
          150
        ],
        "AcquisitionTime": [
          "191806.172500",
          "191808.782500",
          "191811.392500",
          "191814.002500",
          "191816.612500",
          "191819.222500",
          "191821.835000",
          "191824.445000",
          "191827.055000",
          "191829.665000",
          "191832.275000",
          "191834.887500",
          "191837.497500",
          "191840.107500",
          "191842.717500",
          "191845.327500",
          "191847.937500",
          "191850.550000",
          "191853.160000",
          "191855.770000",
          "191858.380000",
          "191900.990000",
          "191903.600000",
          "191906.212500",
          "191908.822500",
          "191911.432500",
          "191914.042500",
          "191916.652500",
          "191919.265000",
          "191921.875000",
          "191924.485000",
          "191927.095000",
          "191929.705000",
          "191932.315000",
          "191934.927500",
          "191937.537500",
          "191940.147500",
          "191942.757500",
          "191945.367500",
          "191947.977500",
          "191950.590000",
          "191953.200000",
          "191955.810000",
          "191958.420000",
          "192001.030000",
          "192003.642500",
          "192006.252500",
          "192008.862500",
          "192011.472500",
          "192014.082500",
          "192016.692500",
          "192019.305000",
          "192021.915000",
          "192024.525000",
          "192027.135000",
          "192029.745000",
          "192032.355000",
          "192034.967500",
          "192037.577500",
          "192040.187500",
          "192042.797500",
          "192045.407500",
          "192048.020000",
          "192050.630000",
          "192053.240000",
          "192055.850000",
          "192058.460000",
          "192101.070000",
          "192103.682500",
          "192106.292500",
          "192108.902500",
          "192111.512500",
          "192114.122500",
          "192116.732500",
          "192119.345000",
          "192121.955000",
          "192124.565000",
          "192127.175000",
          "192129.785000",
          "192132.397500",
          "192135.007500",
          "192137.617500",
          "192140.227500",
          "192142.837500",
          "192145.447500",
          "192148.060000",
          "192150.670000",
          "192153.280000",
          "192155.890000",
          "192158.500000",
          "192201.110000",
          "192203.722500",
          "192206.332500",
          "192208.942500",
          "192211.552500",
          "192214.162500",
          "192216.775000",
          "192219.385000",
          "192221.995000",
          "192224.605000",
          "192227.215000",
          "192229.825000",
          "192232.437500",
          "192235.047500",
          "192237.657500",
          "192240.267500",
          "192242.877500",
          "192245.487500",
          "192248.100000",
          "192250.710000",
          "192253.320000",
          "192255.930000",
          "192258.540000",
          "192301.152500",
          "192303.762500",
          "192306.372500",
          "192308.982500",
          "192311.592500",
          "192314.202500",
          "192316.815000",
          "192319.425000",
          "192322.035000",
          "192324.645000",
          "192327.255000",
          "192329.865000",
          "192332.477500",
          "192335.087500",
          "192337.697500",
          "192340.307500",
          "192342.917500",
          "192345.530000",
          "192348.140000",
          "192350.750000",
          "192353.360000",
          "192355.970000",
          "192358.580000",
          "192401.192500",
          "192403.802500",
          "192406.412500",
          "192409.022500",
          "192411.632500",
          "192414.245000",
          "192416.855000",
          "192419.465000",
          "192422.075000",
          "192424.685000",
          "192427.295000",
          "192429.907500",
          "192432.517500",
          "192435.127500"
        ],
        "ContentTime": [
          "191816.125000",
          "191816.625000",
          "191817.125000",
          "191819.125000",
          "191821.625000",
          "191824.125000",
          "191827.125000",
          "191829.625000",
          "191832.125000",
          "191834.625000",
          "191837.625000",
          "191840.125000",
          "191842.625000",
          "191845.125000",
          "191847.625000",
          "191850.625000",
          "191853.125000",
          "191855.625000",
          "191858.125000",
          "191900.625000",
          "191903.625000",
          "191906.125000",
          "191908.625000",
          "191911.125000",
          "191913.625000",
          "191916.625000",
          "191919.125000",
          "191921.625000",
          "191924.125000",
          "191926.625000",
          "191929.625000",
          "191932.125000",
          "191934.625000",
          "191937.125000",
          "191939.625000",
          "191942.625000",
          "191945.125000",
          "191947.625000",
          "191950.125000",
          "191952.625000",
          "191955.625000",
          "191958.125000",
          "192000.625000",
          "192003.125000",
          "192005.625000",
          "192008.625000",
          "192011.125000",
          "192013.625000",
          "192016.125000",
          "192018.625000",
          "192021.625000",
          "192024.125000",
          "192026.625000",
          "192029.125000",
          "192031.625000",
          "192034.625000",
          "192037.125000",
          "192039.625000",
          "192042.125000",
          "192044.625000",
          "192047.625000",
          "192050.125000",
          "192052.625000",
          "192055.125000",
          "192057.625000",
          "192100.625000",
          "192103.125000",
          "192105.625000",
          "192108.125000",
          "192110.625000",
          "192113.125000",
          "192116.125000",
          "192118.625000",
          "192121.125000",
          "192123.625000",
          "192126.625000",
          "192129.125000",
          "192131.625000",
          "192134.125000",
          "192136.625000",
          "192139.625000",
          "192142.125000",
          "192144.625000",
          "192147.125000",
          "192149.625000",
          "192152.125000",
          "192155.125000",
          "192157.625000",
          "192200.125000",
          "192202.625000",
          "192205.625000",
          "192208.125000",
          "192210.625000",
          "192213.125000",
          "192215.625000",
          "192218.625000",
          "192221.125000",
          "192223.625000",
          "192226.125000",
          "192228.625000",
          "192231.625000",
          "192234.125000",
          "192236.625000",
          "192239.125000",
          "192241.625000",
          "192244.625000",
          "192247.125000",
          "192249.625000",
          "192252.125000",
          "192254.625000",
          "192257.125000",
          "192300.125000",
          "192302.625000",
          "192305.125000",
          "192307.625000",
          "192310.625000",
          "192313.125000",
          "192315.625000",
          "192318.125000",
          "192320.625000",
          "192323.625000",
          "192326.125000",
          "192328.625000",
          "192331.125000",
          "192333.625000",
          "192336.625000",
          "192339.125000",
          "192341.625000",
          "192344.125000",
          "192346.625000",
          "192349.625000",
          "192352.125000",
          "192354.625000",
          "192357.125000",
          "192359.625000",
          "192402.625000",
          "192405.125000",
          "192407.625000",
          "192410.125000",
          "192412.625000",
          "192415.625000",
          "192418.125000",
          "192420.625000",
          "192423.125000",
          "192425.625000",
          "192428.625000",
          "192431.125000",
          "192433.625000",
          "192436.125000",
          "192443.546000"
        ],
        "InstanceCreationTime": [
          "191816.125000",
          "191816.625000",
          "191817.125000",
          "191819.125000",
          "191821.625000",
          "191824.125000",
          "191827.125000",
          "191829.625000",
          "191832.125000",
          "191834.625000",
          "191837.625000",
          "191840.125000",
          "191842.625000",
          "191845.125000",
          "191847.625000",
          "191850.625000",
          "191853.125000",
          "191855.625000",
          "191858.125000",
          "191900.625000",
          "191903.625000",
          "191906.125000",
          "191908.625000",
          "191911.125000",
          "191913.625000",
          "191916.625000",
          "191919.125000",
          "191921.625000",
          "191924.125000",
          "191926.625000",
          "191929.625000",
          "191932.125000",
          "191934.625000",
          "191937.125000",
          "191939.625000",
          "191942.625000",
          "191945.125000",
          "191947.625000",
          "191950.125000",
          "191952.625000",
          "191955.625000",
          "191958.125000",
          "192000.625000",
          "192003.125000",
          "192005.625000",
          "192008.625000",
          "192011.125000",
          "192013.625000",
          "192016.125000",
          "192018.625000",
          "192021.625000",
          "192024.125000",
          "192026.625000",
          "192029.125000",
          "192031.625000",
          "192034.625000",
          "192037.125000",
          "192039.625000",
          "192042.125000",
          "192044.625000",
          "192047.625000",
          "192050.125000",
          "192052.625000",
          "192055.125000",
          "192057.625000",
          "192100.625000",
          "192103.125000",
          "192105.625000",
          "192108.125000",
          "192110.625000",
          "192113.125000",
          "192116.125000",
          "192118.625000",
          "192121.125000",
          "192123.625000",
          "192126.625000",
          "192129.125000",
          "192131.625000",
          "192134.125000",
          "192136.625000",
          "192139.625000",
          "192142.125000",
          "192144.625000",
          "192147.125000",
          "192149.625000",
          "192152.125000",
          "192155.125000",
          "192157.625000",
          "192200.125000",
          "192202.625000",
          "192205.625000",
          "192208.125000",
          "192210.625000",
          "192213.125000",
          "192215.625000",
          "192218.625000",
          "192221.125000",
          "192223.625000",
          "192226.125000",
          "192228.625000",
          "192231.625000",
          "192234.125000",
          "192236.625000",
          "192239.125000",
          "192241.625000",
          "192244.625000",
          "192247.125000",
          "192249.625000",
          "192252.125000",
          "192254.625000",
          "192257.125000",
          "192300.125000",
          "192302.625000",
          "192305.125000",
          "192307.625000",
          "192310.625000",
          "192313.125000",
          "192315.625000",
          "192318.125000",
          "192320.625000",
          "192323.625000",
          "192326.125000",
          "192328.625000",
          "192331.125000",
          "192333.625000",
          "192336.625000",
          "192339.125000",
          "192341.625000",
          "192344.125000",
          "192346.625000",
          "192349.625000",
          "192352.125000",
          "192354.625000",
          "192357.125000",
          "192359.625000",
          "192402.625000",
          "192405.125000",
          "192407.625000",
          "192410.125000",
          "192412.625000",
          "192415.625000",
          "192418.125000",
          "192420.625000",
          "192423.125000",
          "192425.625000",
          "192428.625000",
          "192431.125000",
          "192433.625000",
          "192436.125000",
          "192443.546000"
        ],
        "InstanceNumber": [
          1,
          2,
          3,
          4,
          5,
          6,
          7,
          8,
          9,
          10,
          11,
          12,
          13,
          14,
          15,
          16,
          17,
          18,
          19,
          20,
          21,
          22,
          23,
          24,
          25,
          26,
          27,
          28,
          29,
          30,
          31,
          32,
          33,
          34,
          35,
          36,
          37,
          38,
          39,
          40,
          41,
          42,
          43,
          44,
          45,
          46,
          47,
          48,
          49,
          50,
          51,
          52,
          53,
          54,
          55,
          56,
          57,
          58,
          59,
          60,
          61,
          62,
          63,
          64,
          65,
          66,
          67,
          68,
          69,
          70,
          71,
          72,
          73,
          74,
          75,
          76,
          77,
          78,
          79,
          80,
          81,
          82,
          83,
          84,
          85,
          86,
          87,
          88,
          89,
          90,
          91,
          92,
          93,
          94,
          95,
          96,
          97,
          98,
          99,
          100,
          101,
          102,
          103,
          104,
          105,
          106,
          107,
          108,
          109,
          110,
          111,
          112,
          113,
          114,
          115,
          116,
          117,
          118,
          119,
          120,
          121,
          122,
          123,
          124,
          125,
          126,
          127,
          128,
          129,
          130,
          131,
          132,
          133,
          134,
          135,
          136,
          137,
          138,
          139,
          140,
          141,
          142,
          143,
          144,
          145,
          146,
          147,
          148,
          149,
          150
        ],
        "WindowCenter": [
          918.0,
          915.0,
          914.0,
          915.0,
          914.0,
          913.0,
          914.0,
          915.0,
          914.0,
          912.0,
          913.0,
          914.0,
          913.0,
          912.0,
          913.0,
          914.0,
          913.0,
          912.0,
          914.0,
          915.0,
          913.0,
          912.0,
          913.0,
          912.0,
          913.0,
          914.0,
          914.0,
          913.0,
          913.0,
          912.0,
          914.0,
          913.0,
          912.0,
          913.0,
          914.0,
          913.0,
          912.0,
          914.0,
          915.0,
          914.0,
          914.0,
          914.0,
          914.0,
          913.0,
          916.0,
          914.0,
          913.0,
          913.0,
          914.0,
          913.0,
          912.0,
          913.0,
          914.0,
          915.0,
          914.0,
          913.0,
          914.0,
          914.0,
          913.0,
          913.0,
          914.0,
          913.0,
          913.0,
          913.0,
          915.0,
          913.0,
          913.0,
          914.0,
          915.0,
          914.0,
          912.0,
          913.0,
          915.0,
          913.0,
          912.0,
          912.0,
          915.0,
          914.0,
          912.0,
          911.0,
          912.0,
          913.0,
          912.0,
          912.0,
          913.0,
          913.0,
          913.0,
          914.0,
          914.0,
          915.0,
          914.0,
          913.0,
          914.0,
          915.0,
          913.0,
          913.0,
          915.0,
          916.0,
          914.0,
          914.0,
          914.0,
          915.0,
          914.0,
          913.0,
          914.0,
          914.0,
          914.0,
          913.0,
          914.0,
          914.0,
          913.0,
          915.0,
          914.0,
          913.0,
          914.0,
          913.0,
          912.0,
          912.0,
          913.0,
          915.0,
          914.0,
          913.0,
          915.0,
          915.0,
          914.0,
          915.0,
          916.0,
          915.0,
          913.0,
          914.0,
          915.0,
          915.0,
          915.0,
          914.0,
          914.0,
          914.0,
          915.0,
          915.0,
          913.0,
          913.0,
          915.0,
          917.0,
          916.0,
          915.0,
          914.0,
          914.0,
          914.0,
          916.0,
          916.0,
          914.0
        ],
        "WindowWidth": [
          2106.0,
          2096.0,
          2093.0,
          2096.0,
          2093.0,
          2091.0,
          2095.0,
          2098.0,
          2093.0,
          2088.0,
          2090.0,
          2092.0,
          2090.0,
          2088.0,
          2093.0,
          2094.0,
          2090.0,
          2089.0,
          2094.0,
          2097.0,
          2089.0,
          2087.0,
          2089.0,
          2088.0,
          2090.0,
          2092.0,
          2092.0,
          2091.0,
          2089.0,
          2088.0,
          2093.0,
          2090.0,
          2088.0,
          2092.0,
          2094.0,
          2090.0,
          2088.0,
          2092.0,
          2095.0,
          2092.0,
          2093.0,
          2094.0,
          2092.0,
          2093.0,
          2099.0,
          2095.0,
          2090.0,
          2092.0,
          2095.0,
          2092.0,
          2089.0,
          2092.0,
          2095.0,
          2097.0,
          2093.0,
          2092.0,
          2093.0,
          2093.0,
          2092.0,
          2090.0,
          2093.0,
          2091.0,
          2089.0,
          2090.0,
          2096.0,
          2092.0,
          2089.0,
          2094.0,
          2098.0,
          2093.0,
          2087.0,
          2091.0,
          2097.0,
          2092.0,
          2087.0,
          2087.0,
          2097.0,
          2092.0,
          2087.0,
          2086.0,
          2088.0,
          2092.0,
          2087.0,
          2087.0,
          2091.0,
          2093.0,
          2090.0,
          2093.0,
          2095.0,
          2095.0,
          2092.0,
          2090.0,
          2093.0,
          2097.0,
          2092.0,
          2092.0,
          2098.0,
          2099.0,
          2095.0,
          2093.0,
          2093.0,
          2096.0,
          2095.0,
          2090.0,
          2093.0,
          2094.0,
          2093.0,
          2092.0,
          2093.0,
          2092.0,
          2092.0,
          2096.0,
          2094.0,
          2091.0,
          2094.0,
          2092.0,
          2089.0,
          2089.0,
          2092.0,
          2096.0,
          2095.0,
          2093.0,
          2097.0,
          2096.0,
          2093.0,
          2097.0,
          2101.0,
          2096.0,
          2092.0,
          2095.0,
          2097.0,
          2096.0,
          2096.0,
          2094.0,
          2094.0,
          2093.0,
          2097.0,
          2095.0,
          2092.0,
          2092.0,
          2097.0,
          2102.0,
          2100.0,
          2097.0,
          2094.0,
          2093.0,
          2093.0,
          2099.0,
          2099.0,
          2095.0
        ]
      },
      "slices": {}
    }
  },
  "dummy_trs": 1,
  "dvars_nstd": 75.30755063662166,
  "dvars_std": 1.0533972312837836,
  "dvars_vstd": 1.0115989528378386,
  "efc": 0.5784784467984526,
  "fber": 230.95523071289062,
  "fd_mean": 0.033380066080413114,
  "fd_num": 0,
  "fd_perc": 0.0,
  "fwhm_avg": 3.057570123269668,
  "fwhm_x": 2.906562008091366,
  "fwhm_y": 2.8459822049304306,
  "fwhm_z": 3.4201661567872073,
  "gcor": 0.00195561,
  "gsr_x": 0.07191655784845352,
  "gsr_y": 0.0021431264467537403,
  "provenance": {
    "md5sum": "249b1bc25763a54c418232c8587b748e",
    "settings": {
      "fd_thres": 0.2,
      "testing": false
    },
    "software": "mriqc",
    "version": "22.0.6",
    "webapi_port": null,
    "webapi_url": "https://mriqc.nimh.nih.gov/api/v1"
  },
  "size_t": 149,
  "size_x": 188,
  "size_y": 188,
  "size_z": 46,
  "snr": 1.882644679770164,
  "spacing_tr": 2.5999999046325684,
  "spacing_x": 1.0957447290420532,
  "spacing_y": 1.0957447290420532,
  "spacing_z": 1.099999189376831,
  "summary_bg_k": 37.69316724996702,
  "summary_bg_mad": 35.49290122872377,
  "summary_bg_mean": 121.14600372314453,
  "summary_bg_median": 60.95973205566406,
  "summary_bg_n": 1034995.0,
  "summary_bg_p05": 32.3355712890625,
  "summary_bg_p95": 381.45840454101517,
