{
  "aor": 0.0005667333333333333,
  "aqi": 0.010983409133333333,
  "bids_meta": {
    "AcquisitionMatrixPE": 188,
    "AcquisitionNumber": 1,
    "AcquisitionTime": "18:39:41.400000",
    "BandwidthPerPixelPhaseEncode": 19.46,
    "BaseResolution": 188,
    "CogAtlasID": "TODO",
    "ConversionSoftware": "dcm2niix",
    "ConversionSoftwareVersion": "v1.0.20180606 GCC4.8.5",
    "DelayTime": 1.2,
    "DerivedVendorReportedEchoSpacing": 0.000820013,
    "DeviceSerialNumber": "18930",
    "DwellTime": 1.9e-06,
    "EchoTime": 0.02,
    "EffectiveEchoSpacing": 0.000273338,
    "FlipAngle": 80,
    "ImageComments": "Unaliased_MB2_PE2",
    "ImageOrientationPatientDICOM": [
      0.999286,
      0.00236239,
      0.0377002,
      0.036887,
      0.154005,
      -0.987381
    ],
    "ImageType": [
      "ORIGINAL",
      "PRIMARY",
      "M",
      "MB",
      "ND",
      "MOSAIC"
    ],
    "InPlanePhaseEncodingDirectionDICOM": "COL",
    "InstitutionAddress": "Oxfordlaan_55_Maastricht_753AAF_Limburg_NL_6229_EV",
    "InstitutionName": "Scannexus",
    "InstitutionalDepartmentName": "MRI_7T",
    "MRAcquisitionType": "2D",
    "MagneticFieldStrength": 6.98,
    "Manufacturer": "Siemens",
    "ManufacturersModelName": "Investigational_Device_7T",
    "Modality": "MR",
    "MultibandAccelerationFactor": 2,
    "ParallelReductionFactorInPlane": 3,
    "PartialFourier": 0.75,
    "PatientPosition": "HFS",
    "PercentPhaseFOV": 100,
    "PhaseEncodingDirection": "j",
    "PhaseEncodingSteps": 141,
    "PhaseResolution": 1,
    "PixelBandwidth": 1400,
    "ProcedureStepDescription": "FeDem_Faruk",
    "ProtocolName": "cmrr_mbep2d_bold_AP_run7",
    "PulseSequenceDetails": "%CustomerSeq%_cmrr_mbep2d_bold",
    "ReceiveCoilName": "32Ch_Head_7T",
    "ReconMatrixPE": 188,
    "RepetitionTime": 2.6,
    "SAR": 0.0637333,
    "ScanOptions": "PFP_FS",
    "ScanningSequence": "EP",
    "SequenceName": "epfid2d1_188",
    "SequenceVariant": "SK_SS",
    "SeriesDescription": "cmrr_mbep2d_bold_AP_run7",
    "SeriesNumber": 20,
    "ShimSetting": [
      99,
      -96,
      385,
      439,
      -181,
      19,
      196,
      170
    ],
    "SliceThickness": 1.1,
    "SliceTiming": [
      0,
      0.7325,
      0.0625,
      0.795,
      0.1225,
      0.855,
      0.185,
      0.9175,
      0.245,
      0.9775,
      0.305,
      1.04,
      0.3675,
      1.1,
      0.4275,
      1.1625,
      0.49,
      1.2225,
      0.55,
      1.2825,
      0.6125,
      1.345,
      0.6725,
      0,
      0.7325,
      0.0625,
      0.795,
      0.1225,
      0.855,
      0.185,
      0.9175,
      0.245,
      0.9775,
      0.305,
      1.04,
      0.3675,
      1.1,
      0.4275,
      1.1625,
      0.49,
      1.2225,
      0.55,
      1.2825,
      0.6125,
      1.345,
      0.6725
    ],
    "SoftwareVersions": "syngo_MR_B17",
    "SpacingBetweenSlices": 1.1,
    "StationName": "MRC18930",
    "TaskName": "auditory",
    "TotalReadoutTime": 0.0511141,
    "TxRefAmp": 211,
    "dataset": "ds001942",
    "dcmmeta_affine": [
      [
        -1.0949627161026,
        0.04041874036192894,
        0.008952437900006771,
        97.66889953613281
      ],
      [
        -0.002588572446256876,
        0.16874977946281433,
        -1.0868732929229736,
        28.965768814086914
      ],
      [
        0.04130982235074043,
        1.0819178819656372,
        0.1691882312297821,
        -125.53909301757812
      ],
      [
        0.0,
        0.0,
        0.0,
        1.0
      ]
    ],
    "dcmmeta_reorient_transform": [
      [
        0.0,
        -1.0,
        0.0,
        187.0
      ],
      [
        1.0,
        0.0,
        0.0,
        0.0
      ],
      [
        0.0,
        0.0,
        1.0,
        0.0
      ],
      [
        0.0,
        0.0,
        0.0,
        1.0
      ]
    ],
    "dcmmeta_shape": [
      188,
      188,
      46,
      150
    ],
    "dcmmeta_slice_dim": 2,
    "dcmmeta_version": 0.6,
    "global": {
      "const": {
        "AcquisitionMatrix": [
          188,
          0,
          0,
          188
        ],
        "AngioFlag": "N",
        "BitsAllocated": 16,
        "BitsStored": 12,
        "Columns": 1316,
        "EchoNumbers": 1,
        "EchoTime": 20.0,
        "EchoTrainLength": 1,
        "FlipAngle": 80.0,
        "HighBit": 11,
        "ImageOrientationPatient": [
          0.9992863014427,
          0.0023623863258,
          0.03770022386964,
          0.03688700540101,
          0.15400465001157,
          -0.9873813430521
        ],
        "ImagePositionPatient": [
          -745.58233320233,
          -157.15681018518,
          663.68251557367
        ],
        "ImageType": [
          "ORIGINAL",
          "PRIMARY",
          "M",
          "MB",
          "ND",
          "MOSAIC"
        ],
        "ImagedNucleus": "1H",
        "ImagingFrequency": 297.205619,
        "InPlanePhaseEncodingDirection": "COL",
        "LargestImagePixelValue": 4095,
        "MRAcquisitionType": "2D",
        "MagneticFieldStrength": 6.98,
        "Manufacturer": "SIEMENS",
        "ManufacturerModelName": "Investigational_Device_7T",
        "Modality": "MR",
        "NumberOfAverages": 1.0,
        "NumberOfPhaseEncodingSteps": 141,
        "PercentPhaseFieldOfView": 100.0,
        "PercentSampling": 100.0,
        "PerformedProcedureStepStartTime": "172433.343000",
        "PhotometricInterpretation": "MONOCHROME2",
        "PixelBandwidth": 1400.0,
        "PixelRepresentation": 0,
        "PixelSpacing": [
          1.0957447290421,
          1.0957447290421
        ],
        "ProtocolName": "cmrr_mbep2d_bold_AP_run7",
        "RepetitionTime": 2600.0,
        "Rows": 1316,
        "SAR": 0.06373328560752,
        "SamplesPerPixel": 1,
        "ScanOptions": [
          "PFP",
          "FS"
        ],
        "ScanningSequence": "EP",
        "SequenceName": "epfid2d1_188",
        "SequenceVariant": [
          "SK",
          "SS"
        ],
        "SeriesDescription": "cmrr_mbep2d_bold_AP_run7",
        "SeriesNumber": 20,
        "SeriesTime": "183950.875000",
        "SliceLocation": -47.134106943425,
        "SliceThickness": 1.1000000238419,
        "SmallestImagePixelValue": 0,
        "SoftwareVersions": "syngo MR B17",
        "SpacingBetweenSlices": 1.0999992311947,
        "SpecificCharacterSet": "ISO_IR 100",
        "StudyID": "1",
        "StudyTime": "172433.281000",
        "TransmitCoilName": "32Ch_Head_7T",
        "VariableFlipAngleFlag": "N",
        "WindowCenterWidthExplanation": "Algo1",
        "dBdt": 0.0
      },
      "slices": {}
    },
    "modality": "bold",
    "run_id": 7,
    "session_id": "SES03",
    "subject_id": "S10",
    "task_id": "auditory",
    "time": {
      "samples": {
        "AcquisitionNumber": [
          1,
          2,
          3,
          4,
          5,
          6,
          7,
          8,
          9,
          10,
          11,
          12,
          13,
          14,
          15,
          16,
          17,
          18,
          19,
          20,
          21,
          22,
          23,
          24,
          25,
          26,
          27,
          28,
          29,
          30,
          31,
          32,
          33,
          34,
          35,
          36,
          37,
          38,
          39,
          40,
          41,
          42,
          43,
          44,
          45,
          46,
          47,
          48,
          49,
          50,
          51,
          52,
          53,
          54,
          55,
          56,
          57,
          58,
          59,
          60,
          61,
          62,
          63,
          64,
          65,
          66,
          67,
          68,
          69,
          70,
          71,
          72,
          73,
          74,
          75,
          76,
          77,
          78,
          79,
          80,
          81,
          82,
          83,
          84,
          85,
          86,
          87,
          88,
          89,
          90,
          91,
          92,
          93,
          94,
          95,
          96,
          97,
          98,
          99,
          100,
          101,
          102,
          103,
          104,
          105,
          106,
          107,
          108,
          109,
          110,
          111,
          112,
          113,
          114,
          115,
          116,
          117,
          118,
          119,
          120,
          121,
          122,
          123,
          124,
          125,
          126,
          127,
          128,
          129,
          130,
          131,
          132,
          133,
          134,
          135,
          136,
          137,
          138,
          139,
          140,
          141,
          142,
          143,
          144,
          145,
          146,
          147,
          148,
          149,
          150
        ],
        "AcquisitionTime": [
          "183941.400000",
          "183944.010000",
          "183946.622500",
          "183949.232500",
          "183951.842500",
          "183954.452500",
          "183957.062500",
          "183959.672500",
          "184002.285000",
          "184004.895000",
          "184007.505000",
          "184010.115000",
          "184012.725000",
          "184015.335000",
          "184017.947500",
          "184020.557500",
          "184023.167500",
          "184025.777500",
          "184028.387500",
          "184031.000000",
          "184033.610000",
          "184036.220000",
          "184038.830000",
          "184041.440000",
          "184044.050000",
          "184046.662500",
          "184049.272500",
          "184051.882500",
          "184054.492500",
          "184057.102500",
          "184059.712500",
          "184102.325000",
          "184104.935000",
          "184107.545000",
          "184110.155000",
          "184112.765000",
          "184115.377500",
          "184117.987500",
          "184120.597500",
          "184123.207500",
          "184125.817500",
          "184128.427500",
          "184131.040000",
          "184133.650000",
          "184136.260000",
          "184138.870000",
          "184141.480000",
          "184144.090000",
          "184146.702500",
          "184149.312500",
          "184151.922500",
          "184154.532500",
          "184157.142500",
          "184159.755000",
          "184202.365000",
          "184204.975000",
          "184207.585000",
          "184210.195000",
          "184212.805000",
          "184215.417500",
          "184218.027500",
          "184220.637500",
          "184223.247500",
          "184225.857500",
          "184228.470000",
          "184231.080000",
          "184233.690000",
          "184236.300000",
          "184238.910000",
          "184241.520000",
          "184244.132500",
          "184246.742500",
          "184249.352500",
          "184251.962500",
          "184254.572500",
          "184257.182500",
          "184259.795000",
          "184302.405000",
          "184305.015000",
          "184307.625000",
          "184310.235000",
          "184312.847500",
          "184315.457500",
          "184318.067500",
          "184320.677500",
          "184323.287500",
          "184325.897500",
          "184328.510000",
          "184331.120000",
          "184333.730000",
          "184336.340000",
          "184338.950000",
          "184341.560000",
          "184344.172500",
          "184346.782500",
          "184349.392500",
          "184352.002500",
          "184354.612500",
          "184357.225000",
          "184359.835000",
          "184402.445000",
          "184405.055000",
          "184407.665000",
          "184410.275000",
          "184412.887500",
          "184415.497500",
          "184418.107500",
          "184420.717500",
          "184423.327500",
          "184425.937500",
          "184428.550000",
          "184431.160000",
          "184433.770000",
          "184436.380000",
          "184438.990000",
          "184441.602500",
          "184444.212500",
          "184446.822500",
          "184449.432500",
          "184452.042500",
          "184454.652500",
          "184457.265000",
          "184459.875000",
          "184502.485000",
          "184505.095000",
          "184507.705000",
          "184510.315000",
          "184512.927500",
          "184515.537500",
          "184518.147500",
          "184520.757500",
          "184523.367500",
          "184525.980000",
          "184528.590000",
          "184531.200000",
          "184533.810000",
          "184536.420000",
          "184539.030000",
          "184541.642500",
          "184544.252500",
          "184546.862500",
          "184549.472500",
          "184552.082500",
          "184554.692500",
          "184557.305000",
          "184559.915000",
          "184602.525000",
          "184605.135000",
          "184607.745000",
          "184610.357500"
        ],
        "ContentTime": [
          "183950.875000",
          "183951.875000",
          "183951.875000",
          "183954.375000",
          "183956.875000",
          "183959.375000",
          "184001.875000",
          "184004.375000",
          "184007.375000",
          "184009.875000",
          "184012.375000",
          "184014.875000",
          "184017.375000",
          "184020.375000",
          "184022.875000",
          "184025.375000",
          "184027.875000",
          "184030.375000",
          "184033.375000",
          "184035.875000",
          "184038.375000",
          "184040.875000",
          "184043.375000",
          "184046.375000",
          "184048.875000",
          "184051.375000",
          "184053.875000",
          "184056.375000",
          "184059.375000",
          "184101.875000",
          "184104.375000",
          "184106.875000",
          "184109.375000",
          "184112.375000",
          "184114.875000",
          "184117.375000",
          "184119.875000",
          "184122.375000",
          "184125.375000",
          "184127.875000",
          "184130.375000",
          "184132.875000",
          "184135.375000",
          "184138.375000",
          "184140.875000",
          "184143.375000",
          "184145.875000",
          "184148.375000",
          "184151.375000",
          "184153.875000",
          "184156.375000",
          "184158.875000",
          "184201.375000",
          "184204.375000",
          "184206.875000",
          "184209.375000",
          "184211.875000",
          "184214.375000",
          "184217.375000",
          "184219.875000",
          "184222.375000",
          "184224.875000",
          "184227.375000",
          "184230.375000",
          "184232.875000",
          "184235.375000",
          "184237.875000",
          "184240.375000",
          "184243.375000",
          "184245.875000",
          "184248.375000",
          "184250.875000",
          "184253.375000",
          "184256.375000",
          "184258.875000",
          "184301.375000",
          "184303.875000",
          "184306.375000",
          "184309.375000",
          "184311.875000",
          "184314.375000",
          "184316.875000",
          "184319.375000",
          "184322.375000",
          "184324.875000",
          "184327.375000",
          "184329.875000",
          "184332.375000",
          "184335.375000",
          "184337.875000",
          "184340.375000",
          "184342.875000",
          "184345.375000",
          "184348.375000",
          "184350.875000",
          "184353.375000",
          "184355.875000",
          "184358.375000",
          "184401.375000",
          "184403.875000",
          "184406.375000",
          "184408.875000",
          "184411.375000",
          "184414.375000",
          "184416.875000",
          "184419.375000",
          "184421.875000",
          "184424.375000",
          "184427.375000",
          "184429.875000",
          "184432.375000",
          "184434.875000",
          "184437.375000",
          "184440.375000",
          "184442.875000",
          "184445.375000",
          "184447.875000",
          "184450.375000",
          "184453.375000",
          "184455.875000",
          "184458.375000",
          "184500.875000",
          "184503.375000",
          "184506.375000",
          "184508.875000",
          "184511.375000",
          "184513.875000",
          "184516.375000",
          "184519.375000",
          "184521.875000",
          "184524.375000",
          "184526.875000",
          "184529.375000",
          "184532.375000",
          "184534.875000",
          "184537.375000",
          "184539.875000",
          "184542.375000",
          "184545.375000",
          "184547.875000",
          "184550.375000",
          "184552.875000",
          "184555.375000",
          "184558.375000",
          "184600.875000",
          "184603.375000",
          "184605.875000",
          "184608.375000",
          "184611.375000",
          "184618.500000"
        ],
        "InstanceCreationTime": [
          "183950.875000",
          "183951.875000",
          "183951.875000",
          "183954.375000",
          "183956.875000",
          "183959.375000",
          "184001.875000",
          "184004.375000",
          "184007.375000",
          "184009.875000",
          "184012.375000",
          "184014.875000",
          "184017.375000",
          "184020.375000",
          "184022.875000",
          "184025.375000",
          "184027.875000",
          "184030.375000",
          "184033.375000",
          "184035.875000",
          "184038.375000",
          "184040.875000",
          "184043.375000",
          "184046.375000",
          "184048.875000",
          "184051.375000",
          "184053.875000",
          "184056.375000",
          "184059.375000",
          "184101.875000",
          "184104.375000",
          "184106.875000",
          "184109.375000",
          "184112.375000",
          "184114.875000",
          "184117.375000",
          "184119.875000",
          "184122.375000",
          "184125.375000",
          "184127.875000",
          "184130.375000",
          "184132.875000",
          "184135.375000",
          "184138.375000",
          "184140.875000",
          "184143.375000",
          "184145.875000",
          "184148.375000",
          "184151.375000",
          "184153.875000",
          "184156.375000",
          "184158.875000",
          "184201.375000",
          "184204.375000",
          "184206.875000",
          "184209.375000",
          "184211.875000",
          "184214.375000",
          "184217.375000",
          "184219.875000",
          "184222.375000",
          "184224.875000",
          "184227.375000",
          "184230.375000",
          "184232.875000",
          "184235.375000",
          "184237.875000",
          "184240.375000",
          "184243.375000",
          "184245.875000",
          "184248.375000",
          "184250.875000",
          "184253.375000",
          "184256.375000",
          "184258.875000",
          "184301.375000",
          "184303.875000",
          "184306.375000",
          "184309.375000",
          "184311.875000",
          "184314.375000",
          "184316.875000",
          "184319.375000",
          "184322.375000",
          "184324.875000",
          "184327.375000",
          "184329.875000",
          "184332.375000",
          "184335.375000",
          "184337.875000",
          "184340.375000",
          "184342.875000",
          "184345.375000",
          "184348.375000",
          "184350.875000",
          "184353.375000",
          "184355.875000",
          "184358.375000",
          "184401.375000",
          "184403.875000",
          "184406.375000",
          "184408.875000",
          "184411.375000",
          "184414.375000",
          "184416.875000",
          "184419.375000",
          "184421.875000",
          "184424.375000",
          "184427.375000",
          "184429.875000",
          "184432.375000",
          "184434.875000",
          "184437.375000",
          "184440.375000",
          "184442.875000",
          "184445.375000",
          "184447.875000",
          "184450.375000",
          "184453.375000",
          "184455.875000",
          "184458.375000",
          "184500.875000",
          "184503.375000",
          "184506.375000",
          "184508.875000",
          "184511.375000",
          "184513.875000",
          "184516.375000",
          "184519.375000",
          "184521.875000",
          "184524.375000",
          "184526.875000",
          "184529.375000",
          "184532.375000",
          "184534.875000",
          "184537.375000",
          "184539.875000",
          "184542.375000",
          "184545.375000",
          "184547.875000",
          "184550.375000",
          "184552.875000",
          "184555.375000",
          "184558.375000",
          "184600.875000",
          "184603.375000",
          "184605.875000",
          "184608.375000",
          "184611.375000",
          "184618.500000"
        ],
        "InstanceNumber": [
          1,
          2,
          3,
          4,
          5,
          6,
          7,
          8,
          9,
          10,
          11,
          12,
          13,
          14,
          15,
          16,
          17,
          18,
          19,
          20,
          21,
          22,
          23,
          24,
          25,
          26,
          27,
          28,
          29,
          30,
          31,
          32,
          33,
          34,
          35,
          36,
          37,
          38,
          39,
          40,
          41,
          42,
          43,
          44,
          45,
          46,
          47,
          48,
          49,
          50,
          51,
          52,
          53,
          54,
          55,
          56,
          57,
          58,
          59,
          60,
          61,
          62,
          63,
          64,
          65,
          66,
          67,
          68,
          69,
          70,
          71,
          72,
          73,
          74,
          75,
          76,
          77,
          78,
          79,
          80,
          81,
          82,
          83,
          84,
          85,
          86,
          87,
          88,
          89,
          90,
          91,
          92,
          93,
          94,
          95,
          96,
          97,
          98,
          99,
          100,
          101,
          102,
          103,
          104,
          105,
          106,
          107,
          108,
          109,
          110,
          111,
          112,
          113,
          114,
          115,
          116,
          117,
          118,
          119,
          120,
          121,
          122,
          123,
          124,
          125,
          126,
          127,
          128,
          129,
          130,
          131,
          132,
          133,
          134,
          135,
          136,
          137,
          138,
          139,
          140,
          141,
          142,
          143,
          144,
          145,
          146,
          147,
          148,
          149,
          150
        ],
        "WindowCenter": [
          913.0,
          911.0,
          909.0,
          909.0,
          911.0,
          910.0,
          909.0,
          909.0,
          910.0,
          909.0,
          909.0,
          909.0,
          909.0,
          910.0,
          911.0,
          909.0,
          909.0,
          909.0,
          909.0,
          911.0,
          910.0,
          908.0,
          910.0,
          911.0,
          910.0,
          909.0,
          910.0,
          910.0,
          909.0,
          910.0,
          911.0,
          910.0,
          909.0,
          910.0,
          912.0,
          911.0,
          910.0,
          911.0,
          911.0,
          910.0,
          910.0,
          911.0,
          911.0,
          910.0,
          911.0,
          911.0,
          908.0,
          913.0,
          912.0,
          910.0,
          910.0,
          910.0,
          911.0,
          911.0,
          910.0,
          910.0,
          911.0,
          911.0,
          910.0,
          908.0,
          912.0,
          912.0,
          911.0,
          911.0,
          909.0,
          909.0,
          910.0,
          910.0,
          911.0,
          910.0,
          910.0,
          911.0,
          911.0,
          911.0,
          911.0,
          913.0,
          913.0,
          911.0,
          909.0,
          911.0,
          910.0,
          909.0,
          911.0,
          912.0,
          911.0,
          910.0,
          911.0,
          912.0,
          911.0,
          911.0,
          912.0,
          912.0,
          912.0,
          911.0,
          910.0,
          911.0,
          912.0,
          910.0,
          910.0,
          911.0,
          910.0,
          910.0,
          910.0,
          911.0,
          911.0,
          910.0,
          910.0,
          912.0,
          911.0,
          911.0,
          910.0,
          910.0,
          910.0,
          911.0,
          911.0,
          911.0,
          910.0,
          912.0,
          911.0,
          910.0,
          911.0,
          911.0,
          912.0,
          910.0,
          910.0,
          913.0,
          913.0,
          911.0,
          911.0,
          911.0,
          912.0,
          911.0,
          910.0,
          912.0,
          912.0,
          912.0,
          912.0,
          912.0,
          914.0,
          913.0,
          912.0,
          912.0,
          913.0,
          913.0,
          913.0,
          912.0,
          912.0,
          912.0,
          912.0,
          911.0
        ],
        "WindowWidth": [
          2092.0,
          2085.0,
          2081.0,
          2078.0,
          2084.0,
          2082.0,
          2080.0,
          2081.0,
          2083.0,
          2078.0,
          2079.0,
          2079.0,
          2079.0,
          2082.0,
          2084.0,
          2077.0,
          2079.0,
          2079.0,
          2078.0,
          2086.0,
          2080.0,
          2076.0,
          2083.0,
          2086.0,
          2081.0,
          2080.0,
          2083.0,
          2082.0,
          2079.0,
          2083.0,
          2085.0,
          2080.0,
          2080.0,
          2084.0,
          2088.0,
          2085.0,
          2083.0,
          2084.0,
          2085.0,
          2082.0,
          2083.0,
          2086.0,
          2086.0,
          2082.0,
          2084.0,
          2085.0,
          2076.0,
          2093.0,
          2088.0,
          2082.0,
          2082.0,
          2081.0,
          2085.0,
          2084.0,
          2082.0,
          2083.0,
          2085.0,
          2084.0,
          2082.0,
          2075.0,
          2090.0,
          2088.0,
          2086.0,
          2084.0,
          2079.0,
          2079.0,
          2081.0,
          2082.0,
          2083.0,
          2083.0,
          2082.0,
          2084.0,
          2085.0,
          2084.0,
          2085.0,
          2091.0,
          2092.0,
          2086.0,
          2080.0,
          2084.0,
          2081.0,
          2080.0,
          2085.0,
          2089.0,
          2084.0,
          2083.0,
          2086.0,
          2088.0,
          2083.0,
          2084.0,
          2087.0,
          2090.0,
          2087.0,
          2085.0,
          2082.0,
          2087.0,
          2087.0,
          2082.0,
          2081.0,
          2085.0,
          2082.0,
          2082.0,
          2081.0,
          2085.0,
          2085.0,
          2081.0,
          2083.0,
          2089.0,
          2085.0,
          2084.0,
          2083.0,
          2081.0,
          2081.0,
          2084.0,
          2084.0,
          2085.0,
          2083.0,
          2087.0,
          2086.0,
          2083.0,
          2083.0,
          2085.0,
          2087.0,
          2082.0,
          2083.0,
          2091.0,
          2089.0,
          2084.0,
          2083.0,
          2086.0,
          2086.0,
          2082.0,
          2081.0,
          2086.0,
          2088.0,
          2087.0,
          2087.0,
          2088.0,
          2095.0,
          2090.0,
          2088.0,
          2088.0,
          2089.0,
          2089.0,
          2089.0,
          2087.0,
          2087.0,
          2086.0,
          2086.0,
          2085.0
        ]
      },
      "slices": {}
    }
  },
  "dummy_trs": 0,
  "dvars_nstd": 75.3775239981208,
  "dvars_std": 1.0606179118120806,
  "dvars_vstd": 1.018988123489933,
  "efc": 0.5782597377997619,
  "fber": 232.02902221679688,
  "fd_mean": 0.054258086496427306,
  "fd_num": 2,
  "fd_perc": 1.3333333333333333,
  "fwhm_avg": 3.0487593145566727,
  "fwhm_x": 2.902884144175449,
  "fwhm_y": 2.8459822049304306,
  "fwhm_z": 3.397411594564139,
  "gcor": 0.00206351,
  "gsr_x": 0.06729184836149216,
  "gsr_y": 0.004511484410613775,
  "provenance": {
    "md5sum": "3876d7dabb6d6b1f5099c89783a5cb46",
    "settings": {
      "fd_thres": 0.2,
      "testing": false
    },
    "software": "mriqc",
    "version": "22.0.6",
    "webapi_port": null,
    "webapi_url": "https://mriqc.nimh.nih.gov/api/v1"
  },
  "size_t": 150,
  "size_x": 188,
  "size_y": 188,
  "size_z": 46,
  "snr": 1.8906120406386333,
  "spacing_tr": 2.5999999046325684,
  "spacing_x": 1.0957447290420532,
  "spacing_y": 1.0957447290420532,
  "spacing_z": 1.099999189376831,
  "summary_bg_k": 38.29117802995926,
  "summary_bg_mad": 35.266159416810815,
  "summary_bg_mean": 118.45288848876953,
  "summary_bg_median": 60.60000228881836,
  "summary_bg_n": 1034529.0,
  "summary_bg_p05": 32.253334045410156,
