{
  "aor": 0.0006464429530201342,
  "aqi": 0.01196725369127517,
  "bids_meta": {
    "AcquisitionMatrixPE": 188,
    "AcquisitionNumber": 1,
    "AcquisitionTime": "18:29:30.350000",
    "BandwidthPerPixelPhaseEncode": 19.46,
    "BaseResolution": 188,
    "CogAtlasID": "TODO",
    "ConversionSoftware": "dcm2niix",
    "ConversionSoftwareVersion": "v1.0.20180606 GCC4.8.5",
    "DelayTime": 1.2,
    "DerivedVendorReportedEchoSpacing": 0.000820013,
    "DeviceSerialNumber": "18930",
    "DwellTime": 1.9e-06,
    "EchoTime": 0.02,
    "EffectiveEchoSpacing": 0.000273338,
    "FlipAngle": 80,
    "ImageComments": "Unaliased_MB2_PE2",
    "ImageOrientationPatientDICOM": [
      0.999286,
      0.00236239,
      0.0377002,
      0.036887,
      0.154005,
      -0.987381
    ],
    "ImageType": [
      "ORIGINAL",
      "PRIMARY",
      "M",
      "MB",
      "ND",
      "MOSAIC"
    ],
    "InPlanePhaseEncodingDirectionDICOM": "COL",
    "InstitutionAddress": "Oxfordlaan_55_Maastricht_753AAF_Limburg_NL_6229_EV",
    "InstitutionName": "Scannexus",
    "InstitutionalDepartmentName": "MRI_7T",
    "MRAcquisitionType": "2D",
    "MagneticFieldStrength": 6.98,
    "Manufacturer": "Siemens",
    "ManufacturersModelName": "Investigational_Device_7T",
    "Modality": "MR",
    "MultibandAccelerationFactor": 2,
    "ParallelReductionFactorInPlane": 3,
    "PartialFourier": 0.75,
    "PatientPosition": "HFS",
    "PercentPhaseFOV": 100,
    "PhaseEncodingDirection": "j",
    "PhaseEncodingSteps": 141,
    "PhaseResolution": 1,
    "PixelBandwidth": 1400,
    "ProcedureStepDescription": "FeDem_Faruk",
    "ProtocolName": "cmrr_mbep2d_bold_AP_run6",
    "PulseSequenceDetails": "%CustomerSeq%_cmrr_mbep2d_bold",
    "ReceiveCoilName": "32Ch_Head_7T",
    "ReconMatrixPE": 188,
    "RepetitionTime": 2.6,
    "SAR": 0.0637126,
    "ScanOptions": "PFP_FS",
    "ScanningSequence": "EP",
    "SequenceName": "epfid2d1_188",
    "SequenceVariant": "SK_SS",
    "SeriesDescription": "cmrr_mbep2d_bold_AP_run6",
    "SeriesNumber": 17,
    "ShimSetting": [
      99,
      -96,
      385,
      439,
      -181,
      19,
      196,
      170
    ],
    "SliceThickness": 1.1,
    "SliceTiming": [
      0,
      0.7325,
      0.0625,
      0.795,
      0.1225,
      0.855,
      0.1825,
      0.9175,
      0.245,
      0.9775,
      0.305,
      1.04,
      0.3675,
      1.1,
      0.4275,
      1.16,
      0.49,
      1.2225,
      0.55,
      1.2825,
      0.6125,
      1.345,
      0.6725,
      0,
      0.7325,
      0.0625,
      0.795,
      0.1225,
      0.855,
      0.1825,
      0.9175,
      0.245,
      0.9775,
      0.305,
      1.04,
      0.3675,
      1.1,
      0.4275,
      1.16,
      0.49,
      1.2225,
      0.55,
      1.2825,
      0.6125,
      1.345,
      0.6725
    ],
    "SoftwareVersions": "syngo_MR_B17",
    "SpacingBetweenSlices": 1.1,
    "StationName": "MRC18930",
    "TaskName": "auditory",
    "TotalReadoutTime": 0.0511141,
    "TxRefAmp": 211,
    "dataset": "ds001942",
    "dcmmeta_affine": [
      [
        -1.0949627161026,
        0.04041874036192894,
        0.008952437900006771,
        97.66889953613281
      ],
      [
        -0.002588572446256876,
        0.16874977946281433,
        -1.0868732929229736,
        28.965768814086914
      ],
      [
        0.04130982235074043,
        1.0819178819656372,
        0.1691882312297821,
        -125.53909301757812
      ],
      [
        0.0,
        0.0,
        0.0,
        1.0
      ]
    ],
    "dcmmeta_reorient_transform": [
      [
        0.0,
        -1.0,
        0.0,
        187.0
      ],
      [
        1.0,
        0.0,
        0.0,
        0.0
      ],
      [
        0.0,
        0.0,
        1.0,
        0.0
      ],
      [
        0.0,
        0.0,
        0.0,
        1.0
      ]
    ],
    "dcmmeta_shape": [
      188,
      188,
      46,
      150
    ],
    "dcmmeta_slice_dim": 2,
    "dcmmeta_version": 0.6,
    "global": {
      "const": {
        "AcquisitionMatrix": [
          188,
          0,
          0,
          188
        ],
        "AngioFlag": "N",
        "BitsAllocated": 16,
        "BitsStored": 12,
        "Columns": 1316,
        "EchoNumbers": 1,
        "EchoTime": 20.0,
        "EchoTrainLength": 1,
        "FlipAngle": 80.0,
        "HighBit": 11,
        "ImageOrientationPatient": [
          0.9992863014427,
          0.0023623863258,
          0.03770022386964,
          0.03688700540101,
          0.15400465001157,
          -0.9873813430521
        ],
        "ImagePositionPatient": [
          -745.58233320233,
          -157.15681018518,
          663.68251557367
        ],
        "ImageType": [
          "ORIGINAL",
          "PRIMARY",
          "M",
          "MB",
          "ND",
          "MOSAIC"
        ],
        "ImagedNucleus": "1H",
        "ImagingFrequency": 297.205613,
        "InPlanePhaseEncodingDirection": "COL",
        "LargestImagePixelValue": 4095,
        "MRAcquisitionType": "2D",
        "MagneticFieldStrength": 6.98,
        "Manufacturer": "SIEMENS",
        "ManufacturerModelName": "Investigational_Device_7T",
        "Modality": "MR",
        "NumberOfAverages": 1.0,
        "NumberOfPhaseEncodingSteps": 141,
        "PercentPhaseFieldOfView": 100.0,
        "PercentSampling": 100.0,
        "PerformedProcedureStepStartTime": "172433.343000",
        "PhotometricInterpretation": "MONOCHROME2",
        "PixelBandwidth": 1400.0,
        "PixelRepresentation": 0,
        "PixelSpacing": [
          1.0957447290421,
          1.0957447290421
        ],
        "ProtocolName": "cmrr_mbep2d_bold_AP_run6",
        "RepetitionTime": 2600.0,
        "Rows": 1316,
        "SAR": 0.06371264856304,
        "SamplesPerPixel": 1,
        "ScanOptions": [
          "PFP",
          "FS"
        ],
        "ScanningSequence": "EP",
        "SequenceName": "epfid2d1_188",
        "SequenceVariant": [
          "SK",
          "SS"
        ],
        "SeriesDescription": "cmrr_mbep2d_bold_AP_run6",
        "SeriesNumber": 17,
        "SeriesTime": "182939.265000",
        "SliceLocation": -47.134106943425,
        "SliceThickness": 1.1000000238419,
        "SmallestImagePixelValue": 0,
        "SoftwareVersions": "syngo MR B17",
        "SpacingBetweenSlices": 1.0999992311947,
        "SpecificCharacterSet": "ISO_IR 100",
        "StudyID": "1",
        "StudyTime": "172433.281000",
        "TransmitCoilName": "32Ch_Head_7T",
        "VariableFlipAngleFlag": "N",
        "WindowCenterWidthExplanation": "Algo1",
        "dBdt": 0.0
      },
      "slices": {}
    },
    "modality": "bold",
    "run_id": 6,
    "session_id": "SES03",
    "subject_id": "S10",
    "task_id": "auditory",
    "time": {
      "samples": {
        "AcquisitionNumber": [
          1,
          2,
          3,
          4,
          5,
          6,
          7,
          8,
          9,
          10,
          11,
          12,
          13,
          14,
          15,
          16,
          17,
          18,
          19,
          20,
          21,
          22,
          23,
          24,
          25,
          26,
          27,
          28,
          29,
          30,
          31,
          32,
          33,
          34,
          35,
          36,
          37,
          38,
          39,
          40,
          41,
          42,
          43,
          44,
          45,
          46,
          47,
          48,
          49,
          50,
          51,
          52,
          53,
          54,
          55,
          56,
          57,
          58,
          59,
          60,
          61,
          62,
          63,
          64,
          65,
          66,
          67,
          68,
          69,
          70,
          71,
          72,
          73,
          74,
          75,
          76,
          77,
          78,
          79,
          80,
          81,
          82,
          83,
          84,
          85,
          86,
          87,
          88,
          89,
          90,
          91,
          92,
          93,
          94,
          95,
          96,
          97,
          98,
          99,
          100,
          101,
          102,
          103,
          104,
          105,
          106,
          107,
          108,
          109,
          110,
          111,
          112,
          113,
          114,
          115,
          116,
          117,
          118,
          119,
          120,
          121,
          122,
          123,
          124,
          125,
          126,
          127,
          128,
          129,
          130,
          131,
          132,
          133,
          134,
          135,
          136,
          137,
          138,
          139,
          140,
          141,
          142,
          143,
          144,
          145,
          146,
          147,
          148,
          149,
          150
        ],
        "AcquisitionTime": [
          "182930.350000",
          "182932.960000",
          "182935.570000",
          "182938.182500",
          "182940.792500",
          "182943.402500",
          "182946.012500",
          "182948.622500",
          "182951.235000",
          "182953.845000",
          "182956.455000",
          "182959.065000",
          "183001.675000",
          "183004.285000",
          "183006.897500",
          "183009.507500",
          "183012.117500",
          "183014.727500",
          "183017.337500",
          "183019.947500",
          "183022.560000",
          "183025.170000",
          "183027.780000",
          "183030.390000",
          "183033.000000",
          "183035.612500",
          "183038.222500",
          "183040.832500",
          "183043.442500",
          "183046.052500",
          "183048.662500",
          "183051.275000",
          "183053.885000",
          "183056.495000",
          "183059.105000",
          "183101.715000",
          "183104.325000",
          "183106.937500",
          "183109.547500",
          "183112.157500",
          "183114.767500",
          "183117.377500",
          "183119.990000",
          "183122.600000",
          "183125.210000",
          "183127.820000",
          "183130.430000",
          "183133.040000",
          "183135.652500",
          "183138.262500",
          "183140.872500",
          "183143.482500",
          "183146.092500",
          "183148.702500",
          "183151.315000",
          "183153.925000",
          "183156.535000",
          "183159.145000",
          "183201.755000",
          "183204.367500",
          "183206.977500",
          "183209.587500",
          "183212.197500",
          "183214.807500",
          "183217.417500",
          "183220.030000",
          "183222.640000",
          "183225.250000",
          "183227.860000",
          "183230.470000",
          "183233.080000",
          "183235.692500",
          "183238.302500",
          "183240.912500",
          "183243.522500",
          "183246.132500",
          "183248.745000",
          "183251.355000",
          "183253.965000",
          "183256.575000",
          "183259.185000",
          "183301.795000",
          "183304.407500",
          "183307.017500",
          "183309.627500",
          "183312.237500",
          "183314.847500",
          "183317.457500",
          "183320.070000",
          "183322.680000",
          "183325.290000",
          "183327.900000",
          "183330.510000",
          "183333.122500",
          "183335.732500",
          "183338.342500",
          "183340.952500",
          "183343.562500",
          "183346.172500",
          "183348.785000",
          "183351.395000",
          "183354.005000",
          "183356.615000",
          "183359.225000",
          "183401.835000",
          "183404.447500",
          "183407.057500",
          "183409.667500",
          "183412.277500",
          "183414.887500",
          "183417.500000",
          "183420.110000",
          "183422.720000",
          "183425.330000",
          "183427.940000",
          "183430.550000",
          "183433.162500",
          "183435.772500",
          "183438.382500",
          "183440.992500",
          "183443.602500",
          "183446.212500",
          "183448.825000",
          "183451.435000",
          "183454.045000",
          "183456.655000",
          "183459.265000",
          "183501.877500",
          "183504.487500",
          "183507.097500",
          "183509.707500",
          "183512.317500",
          "183514.927500",
          "183517.540000",
          "183520.150000",
          "183522.760000",
          "183525.370000",
          "183527.980000",
          "183530.590000",
          "183533.202500",
          "183535.812500",
          "183538.422500",
          "183541.032500",
          "183543.642500",
          "183546.255000",
          "183548.865000",
          "183551.475000",
          "183554.085000",
          "183556.695000",
          "183559.305000"
        ],
        "ContentTime": [
          "182939.265000",
          "182940.250000",
          "182940.265000",
          "182942.265000",
          "182945.265000",
          "182947.765000",
          "182950.265000",
          "182952.765000",
          "182955.265000",
          "182958.265000",
          "183000.765000",
          "183003.265000",
          "183005.765000",
          "183008.265000",
          "183011.265000",
          "183013.765000",
          "183016.265000",
          "183018.765000",
          "183021.265000",
          "183024.265000",
          "183026.765000",
          "183029.265000",
          "183031.765000",
          "183034.265000",
          "183037.265000",
          "183039.765000",
          "183042.265000",
          "183044.765000",
          "183047.265000",
          "183050.265000",
          "183052.765000",
          "183055.265000",
          "183057.765000",
          "183100.265000",
          "183103.265000",
          "183105.765000",
          "183108.265000",
          "183110.765000",
          "183113.265000",
          "183116.265000",
          "183118.765000",
          "183121.265000",
          "183123.765000",
          "183126.265000",
          "183129.265000",
          "183131.765000",
          "183134.250000",
          "183136.765000",
          "183139.265000",
          "183142.265000",
          "183144.765000",
          "183147.265000",
          "183149.765000",
          "183152.265000",
          "183155.265000",
          "183157.765000",
          "183200.265000",
          "183202.765000",
          "183205.265000",
          "183208.265000",
          "183210.765000",
          "183213.265000",
          "183215.765000",
          "183218.265000",
          "183221.265000",
          "183223.765000",
          "183226.265000",
          "183228.765000",
          "183231.250000",
          "183234.265000",
          "183236.765000",
          "183239.265000",
          "183241.765000",
          "183244.265000",
          "183247.265000",
          "183249.765000",
          "183252.265000",
          "183254.765000",
          "183257.265000",
          "183300.265000",
          "183302.765000",
          "183305.265000",
          "183307.765000",
          "183310.265000",
          "183313.265000",
          "183315.765000",
          "183318.265000",
          "183320.765000",
          "183323.265000",
          "183326.265000",
          "183328.765000",
          "183331.265000",
          "183333.765000",
          "183336.265000",
          "183339.265000",
          "183341.765000",
          "183344.265000",
          "183346.765000",
          "183349.265000",
          "183352.250000",
          "183354.765000",
          "183357.265000",
          "183359.765000",
          "183402.265000",
          "183405.265000",
          "183407.765000",
          "183410.265000",
          "183412.765000",
          "183415.265000",
          "183418.265000",
          "183420.765000",
          "183423.265000",
          "183425.765000",
          "183428.265000",
          "183431.265000",
          "183433.765000",
          "183436.265000",
          "183438.765000",
          "183441.265000",
          "183444.265000",
          "183446.765000",
          "183449.265000",
          "183451.765000",
          "183454.265000",
          "183457.265000",
          "183459.765000",
          "183502.265000",
          "183504.765000",
          "183507.265000",
          "183510.265000",
          "183512.765000",
          "183515.265000",
          "183517.765000",
          "183520.250000",
          "183523.265000",
          "183525.765000",
          "183528.265000",
          "183530.765000",
          "183533.265000",
          "183536.265000",
          "183538.765000",
          "183541.265000",
          "183543.765000",
          "183546.265000",
          "183549.265000",
          "183551.765000",
          "183554.265000",
          "183556.765000",
          "183559.265000",
          "183606.828000"
        ],
        "InstanceCreationTime": [
          "182939.265000",
          "182940.250000",
          "182940.265000",
          "182942.265000",
          "182945.265000",
          "182947.765000",
          "182950.265000",
          "182952.765000",
          "182955.265000",
          "182958.265000",
          "183000.765000",
          "183003.265000",
          "183005.765000",
          "183008.265000",
          "183011.265000",
          "183013.765000",
          "183016.265000",
          "183018.765000",
          "183021.265000",
          "183024.265000",
          "183026.765000",
          "183029.265000",
          "183031.765000",
          "183034.265000",
          "183037.265000",
          "183039.765000",
          "183042.265000",
          "183044.765000",
          "183047.265000",
          "183050.265000",
          "183052.765000",
          "183055.265000",
          "183057.765000",
          "183100.265000",
          "183103.265000",
          "183105.765000",
          "183108.265000",
          "183110.765000",
          "183113.265000",
          "183116.265000",
          "183118.765000",
          "183121.265000",
          "183123.765000",
          "183126.265000",
          "183129.265000",
          "183131.765000",
          "183134.250000",
          "183136.765000",
          "183139.265000",
          "183142.265000",
          "183144.765000",
          "183147.265000",
          "183149.765000",
          "183152.265000",
          "183155.265000",
          "183157.765000",
          "183200.265000",
          "183202.765000",
          "183205.265000",
          "183208.265000",
          "183210.765000",
          "183213.265000",
          "183215.765000",
          "183218.265000",
          "183221.265000",
          "183223.765000",
          "183226.265000",
          "183228.765000",
          "183231.250000",
          "183234.265000",
          "183236.765000",
          "183239.265000",
          "183241.765000",
          "183244.265000",
          "183247.265000",
          "183249.765000",
          "183252.265000",
          "183254.765000",
          "183257.265000",
          "183300.265000",
          "183302.765000",
          "183305.265000",
          "183307.765000",
          "183310.265000",
          "183313.265000",
          "183315.765000",
          "183318.265000",
          "183320.765000",
          "183323.265000",
          "183326.265000",
          "183328.765000",
          "183331.265000",
          "183333.765000",
          "183336.265000",
          "183339.265000",
          "183341.765000",
          "183344.265000",
          "183346.765000",
          "183349.265000",
          "183352.250000",
          "183354.765000",
          "183357.265000",
          "183359.765000",
          "183402.265000",
          "183405.265000",
          "183407.765000",
          "183410.265000",
          "183412.765000",
          "183415.265000",
          "183418.265000",
          "183420.765000",
          "183423.265000",
          "183425.765000",
          "183428.265000",
          "183431.265000",
          "183433.765000",
          "183436.265000",
          "183438.765000",
          "183441.265000",
          "183444.265000",
          "183446.765000",
          "183449.265000",
          "183451.765000",
          "183454.265000",
          "183457.265000",
          "183459.765000",
          "183502.265000",
          "183504.765000",
          "183507.265000",
          "183510.265000",
          "183512.765000",
          "183515.265000",
          "183517.765000",
          "183520.250000",
          "183523.265000",
          "183525.765000",
          "183528.265000",
          "183530.765000",
          "183533.265000",
          "183536.265000",
          "183538.765000",
          "183541.265000",
          "183543.765000",
          "183546.265000",
          "183549.265000",
          "183551.765000",
          "183554.265000",
          "183556.765000",
          "183559.265000",
          "183606.828000"
        ],
        "InstanceNumber": [
          1,
          2,
          3,
          4,
          5,
          6,
          7,
          8,
          9,
          10,
          11,
          12,
          13,
          14,
          15,
          16,
          17,
          18,
          19,
          20,
          21,
          22,
          23,
          24,
          25,
          26,
          27,
          28,
          29,
          30,
          31,
          32,
          33,
          34,
          35,
          36,
          37,
          38,
          39,
          40,
          41,
          42,
          43,
          44,
          45,
          46,
          47,
          48,
          49,
          50,
          51,
          52,
          53,
          54,
          55,
          56,
          57,
          58,
          59,
          60,
          61,
          62,
          63,
          64,
          65,
          66,
          67,
          68,
          69,
          70,
          71,
          72,
          73,
          74,
          75,
          76,
          77,
          78,
          79,
          80,
          81,
          82,
          83,
          84,
          85,
          86,
          87,
          88,
          89,
          90,
          91,
          92,
          93,
          94,
          95,
          96,
          97,
          98,
          99,
          100,
          101,
          102,
          103,
          104,
          105,
          106,
          107,
          108,
          109,
          110,
          111,
          112,
          113,
          114,
          115,
          116,
          117,
          118,
          119,
          120,
          121,
          122,
          123,
          124,
          125,
          126,
          127,
          128,
          129,
          130,
          131,
          132,
          133,
          134,
          135,
          136,
          137,
          138,
          139,
          140,
          141,
          142,
          143,
          144,
          145,
          146,
          147,
          148,
          149,
          150
        ],
        "WindowCenter": [
          918.0,
          915.0,
          914.0,
          914.0,
          914.0,
          912.0,
          911.0,
          914.0,
          915.0,
          913.0,
          912.0,
          914.0,
          914.0,
          913.0,
          914.0,
          916.0,
          914.0,
          913.0,
          915.0,
          914.0,
          913.0,
          913.0,
          915.0,
          914.0,
          913.0,
          913.0,
          914.0,
          913.0,
          912.0,
          914.0,
          914.0,
          912.0,
          912.0,
          913.0,
          913.0,
          913.0,
          914.0,
          914.0,
          915.0,
          914.0,
          914.0,
          914.0,
          913.0,
          912.0,
          913.0,
          914.0,
          913.0,
          912.0,
          913.0,
          915.0,
          914.0,
          912.0,
          914.0,
          915.0,
          913.0,
          914.0,
          915.0,
          914.0,
          913.0,
          914.0,
          915.0,
          913.0,
          913.0,
          914.0,
          914.0,
          914.0,
          912.0,
          912.0,
          914.0,
          914.0,
          912.0,
          912.0,
          914.0,
          913.0,
          912.0,
          913.0,
          914.0,
          913.0,
          912.0,
          914.0,
          914.0,
          914.0,
          913.0,
          913.0,
          913.0,
          913.0,
          915.0,
          914.0,
          913.0,
          914.0,
          915.0,
          913.0,
          914.0,
          915.0,
          914.0,
          912.0,
          913.0,
          916.0,
          914.0,
          913.0,
          913.0,
          915.0,
          917.0,
          916.0,
          913.0,
          912.0,
          913.0,
          914.0,
          912.0,
          913.0,
          914.0,
          913.0,
          912.0,
          912.0,
          913.0,
          913.0,
          911.0,
          911.0,
          912.0,
          910.0,
          911.0,
          912.0,
          912.0,
          912.0,
          912.0,
          911.0,
          912.0,
          913.0,
          913.0,
          913.0,
          913.0,
          913.0,
          912.0,
          912.0,
          913.0,
          912.0,
          912.0,
          912.0,
          913.0,
          913.0,
          912.0,
          911.0,
          911.0,
          913.0,
          913.0,
          912.0,
          913.0,
          913.0,
          912.0,
          912.0
        ],
        "WindowWidth": [
          2107.0,
          2099.0,
          2095.0,
          2094.0,
          2095.0,
          2088.0,
          2087.0,
          2095.0,
          2097.0,
          2093.0,
          2090.0,
          2094.0,
          2096.0,
          2092.0,
          2095.0,
          2100.0,
          2095.0,
          2093.0,
          2098.0,
          2095.0,
          2093.0,
          2092.0,
          2097.0,
          2093.0,
          2091.0,
          2093.0,
          2093.0,
          2092.0,
          2090.0,
          2094.0,
          2095.0,
          2089.0,
          2088.0,
          2092.0,
          2093.0,
          2093.0,
          2096.0,
          2095.0,
          2097.0,
          2095.0,
          2095.0,
          2095.0,
          2091.0,
          2089.0,
          2094.0,
          2094.0,
          2090.0,
          2088.0,
          2093.0,
          2096.0,
          2094.0,
          2090.0,
          2095.0,
          2098.0,
          2093.0,
          2096.0,
          2099.0,
          2095.0,
          2091.0,
          2096.0,
          2097.0,
          2092.0,
          2091.0,
          2094.0,
          2096.0,
          2094.0,
          2089.0,
          2089.0,
          2095.0,
          2093.0,
          2089.0,
          2089.0,
          2094.0,
          2092.0,
          2088.0,
          2092.0,
          2094.0,
          2092.0,
          2088.0,
          2094.0,
          2094.0,
          2093.0,
          2092.0,
          2092.0,
          2089.0,
          2093.0,
          2097.0,
          2095.0,
          2091.0,
          2096.0,
          2096.0,
          2091.0,
          2093.0,
          2098.0,
          2095.0,
          2088.0,
          2092.0,
          2099.0,
          2094.0,
          2090.0,
          2091.0,
          2097.0,
          2106.0,
          2100.0,
          2091.0,
          2090.0,
          2093.0,
          2094.0,
          2089.0,
          2091.0,
          2096.0,
          2093.0,
          2087.0,
          2089.0,
          2092.0,
          2093.0,
          2087.0,
          2087.0,
          2088.0,
          2082.0,
          2085.0,
          2088.0,
          2088.0,
          2087.0,
          2089.0,
          2086.0,
          2088.0,
          2090.0,
          2093.0,
          2091.0,
          2093.0,
          2092.0,
          2090.0,
          2090.0,
          2092.0,
          2088.0,
          2088.0,
          2089.0,
          2091.0,
          2091.0,
          2090.0,
          2086.0,
          2087.0,
          2091.0,
          2093.0,
          2091.0,
          2092.0,
          2093.0,
          2090.0,
          2089.0
        ]
      },
      "slices": {}
    }
  },
  "dummy_trs": 1,
  "dvars_nstd": 75.61069581310815,
  "dvars_std": 1.0525920979729735,
  "dvars_vstd": 1.0090271552702703,
  "efc": 0.5777190167518236,
  "fber": 235.13258361816406,
  "fd_mean": 0.04839498103249489,
  "fd_num": 1,
  "fd_perc": 0.6711409395973155,
  "fwhm_avg": 3.063721447361059,
  "fwhm_x": 2.923372492788932,
  "fwhm_y": 2.8572256995815715,
  "fwhm_z": 3.4105661497126727,
  "gcor": 0.00222696,
  "gsr_x": 0.06575597077608109,
  "gsr_y": 0.005719666834920645,
  "provenance": {
    "md5sum": "5f34b50eeb52d1ad2cbc408a5c673cae",
    "settings": {
      "fd_thres": 0.2,
      "testing": false
    },
    "software": "mriqc",
    "version": "22.0.6",
    "webapi_port": null,
    "webapi_url": "https://mriqc.nimh.nih.gov/api/v1"
  },
  "size_t": 149,
  "size_x": 188,
  "size_y": 188,
  "size_z": 46,
  "snr": 1.8838194392345073,
  "spacing_tr": 2.5999999046325684,
  "spacing_x": 1.0957447290420532,
  "spacing_y": 1.0957447290420532,
  "spacing_z": 1.099999189376831,
  "summary_bg_k": 38.27239680722566,
  "summary_bg_mad": 35.53270023923564,
  "summary_bg_mean": 118.45478820800781,
  "summary_bg_median": 60.73825454711914,
  "summary_bg_n": 1035162.0,
  "summary_bg_p05": 32.442955017089844,
