{
  "aor": 0.0005730666666666668,
  "aqi": 0.010807401333333333,
  "bids_meta": {
    "AcquisitionMatrixPE": 188,
    "AcquisitionNumber": 1,
    "AcquisitionTime": "18:14:7.630000",
    "BandwidthPerPixelPhaseEncode": 19.46,
    "BaseResolution": 188,
    "CogAtlasID": "TODO",
    "ConversionSoftware": "dcm2niix",
    "ConversionSoftwareVersion": "v1.0.20180606 GCC4.8.5",
    "DelayTime": 1.2,
    "DerivedVendorReportedEchoSpacing": 0.000820013,
    "DeviceSerialNumber": "18930",
    "DwellTime": 1.9e-06,
    "EchoTime": 0.02,
    "EffectiveEchoSpacing": 0.000273338,
    "FlipAngle": 80,
    "ImageComments": "Unaliased_MB2_PE2",
    "ImageOrientationPatientDICOM": [
      0.999286,
      0.00236239,
      0.0377002,
      0.036887,
      0.154005,
      -0.987381
    ],
    "ImageType": [
      "ORIGINAL",
      "PRIMARY",
      "M",
      "MB",
      "ND",
      "MOSAIC"
    ],
    "InPlanePhaseEncodingDirectionDICOM": "COL",
    "InstitutionAddress": "Oxfordlaan_55_Maastricht_753AAF_Limburg_NL_6229_EV",
    "InstitutionName": "Scannexus",
    "InstitutionalDepartmentName": "MRI_7T",
    "MRAcquisitionType": "2D",
    "MagneticFieldStrength": 6.98,
    "Manufacturer": "Siemens",
    "ManufacturersModelName": "Investigational_Device_7T",
    "Modality": "MR",
    "MultibandAccelerationFactor": 2,
    "ParallelReductionFactorInPlane": 3,
    "PartialFourier": 0.75,
    "PatientPosition": "HFS",
    "PercentPhaseFOV": 100,
    "PhaseEncodingDirection": "j",
    "PhaseEncodingSteps": 141,
    "PhaseResolution": 1,
    "PixelBandwidth": 1400,
    "ProcedureStepDescription": "FeDem_Faruk",
    "ProtocolName": "cmrr_mbep2d_bold_AP_run4",
    "PulseSequenceDetails": "%CustomerSeq%_cmrr_mbep2d_bold",
    "ReceiveCoilName": "32Ch_Head_7T",
    "ReconMatrixPE": 188,
    "RepetitionTime": 2.6,
    "SAR": 0.0639224,
    "ScanOptions": "PFP_FS",
    "ScanningSequence": "EP",
    "SequenceName": "epfid2d1_188",
    "SequenceVariant": "SK_SS",
    "SeriesDescription": "cmrr_mbep2d_bold_AP_run4",
    "SeriesNumber": 15,
    "ShimSetting": [
      99,
      -96,
      385,
      439,
      -181,
      19,
      196,
      170
    ],
    "SliceThickness": 1.1,
    "SliceTiming": [
      0,
      0.7325,
      0.06,
      0.7925,
      0.1225,
      0.855,
      0.1825,
      0.915,
      0.245,
      0.9775,
      0.305,
      1.0375,
      0.365,
      1.1,
      0.4275,
      1.16,
      0.4875,
      1.2225,
      0.55,
      1.2825,
      0.61,
      1.3425,
      0.6725,
      0,
      0.7325,
      0.06,
      0.7925,
      0.1225,
      0.855,
      0.1825,
      0.915,
      0.245,
      0.9775,
      0.305,
      1.0375,
      0.365,
      1.1,
      0.4275,
      1.16,
      0.4875,
      1.2225,
      0.55,
      1.2825,
      0.61,
      1.3425,
      0.6725
    ],
    "SoftwareVersions": "syngo_MR_B17",
    "SpacingBetweenSlices": 1.1,
    "StationName": "MRC18930",
    "TaskName": "auditory",
    "TotalReadoutTime": 0.0511141,
    "TxRefAmp": 211,
    "dataset": "ds001942",
    "dcmmeta_affine": [
      [
        -1.0949627161026,
        0.04041874036192894,
        0.008952437900006771,
        97.66889953613281
      ],
      [
        -0.002588572446256876,
        0.16874977946281433,
        -1.0868732929229736,
        28.965768814086914
      ],
      [
        0.04130982235074043,
        1.0819178819656372,
        0.1691882312297821,
        -125.53909301757812
      ],
      [
        0.0,
        0.0,
        0.0,
        1.0
      ]
    ],
    "dcmmeta_reorient_transform": [
      [
        0.0,
        -1.0,
        0.0,
        187.0
      ],
      [
        1.0,
        0.0,
        0.0,
        0.0
      ],
      [
        0.0,
        0.0,
        1.0,
        0.0
      ],
      [
        0.0,
        0.0,
        0.0,
        1.0
      ]
    ],
    "dcmmeta_shape": [
      188,
      188,
      46,
      150
    ],
    "dcmmeta_slice_dim": 2,
    "dcmmeta_version": 0.6,
    "global": {
      "const": {
        "AcquisitionMatrix": [
          188,
          0,
          0,
          188
        ],
        "AngioFlag": "N",
        "BitsAllocated": 16,
        "BitsStored": 12,
        "Columns": 1316,
        "EchoNumbers": 1,
        "EchoTime": 20.0,
        "EchoTrainLength": 1,
        "FlipAngle": 80.0,
        "HighBit": 11,
        "ImageOrientationPatient": [
          0.9992863014427,
          0.0023623863258,
          0.03770022386964,
          0.03688700540101,
          0.15400465001157,
          -0.9873813430521
        ],
        "ImagePositionPatient": [
          -745.58233320233,
          -157.15681018518,
          663.68251557367
        ],
        "ImageType": [
          "ORIGINAL",
          "PRIMARY",
          "M",
          "MB",
          "ND",
          "MOSAIC"
        ],
        "ImagedNucleus": "1H",
        "ImagingFrequency": 297.205612,
        "InPlanePhaseEncodingDirection": "COL",
        "LargestImagePixelValue": 4095,
        "MRAcquisitionType": "2D",
        "MagneticFieldStrength": 6.98,
        "Manufacturer": "SIEMENS",
        "ManufacturerModelName": "Investigational_Device_7T",
        "Modality": "MR",
        "NumberOfAverages": 1.0,
        "NumberOfPhaseEncodingSteps": 141,
        "PercentPhaseFieldOfView": 100.0,
        "PercentSampling": 100.0,
        "PerformedProcedureStepStartTime": "172433.343000",
        "PhotometricInterpretation": "MONOCHROME2",
        "PixelBandwidth": 1400.0,
        "PixelRepresentation": 0,
        "PixelSpacing": [
          1.0957447290421,
          1.0957447290421
        ],
        "ProtocolName": "cmrr_mbep2d_bold_AP_run4",
        "RepetitionTime": 2600.0,
        "Rows": 1316,
        "SAR": 0.06392239439508,
        "SamplesPerPixel": 1,
        "ScanOptions": [
          "PFP",
          "FS"
        ],
        "ScanningSequence": "EP",
        "SequenceName": "epfid2d1_188",
        "SequenceVariant": [
          "SK",
          "SS"
        ],
        "SeriesDescription": "cmrr_mbep2d_bold_AP_run4",
        "SeriesNumber": 15,
        "SeriesTime": "181416.937000",
        "SliceLocation": -47.134106943425,
        "SliceThickness": 1.1000000238419,
        "SmallestImagePixelValue": 0,
        "SoftwareVersions": "syngo MR B17",
        "SpacingBetweenSlices": 1.0999992311947,
        "SpecificCharacterSet": "ISO_IR 100",
        "StudyID": "1",
        "StudyTime": "172433.281000",
        "TransmitCoilName": "32Ch_Head_7T",
        "VariableFlipAngleFlag": "N",
        "WindowCenterWidthExplanation": "Algo1",
        "dBdt": 0.0
      },
      "slices": {}
    },
    "modality": "bold",
    "run_id": 4,
    "session_id": "SES03",
    "subject_id": "S10",
    "task_id": "auditory",
    "time": {
      "samples": {
        "AcquisitionNumber": [
          1,
          2,
          3,
          4,
          5,
          6,
          7,
          8,
          9,
          10,
          11,
          12,
          13,
          14,
          15,
          16,
          17,
          18,
          19,
          20,
          21,
          22,
          23,
          24,
          25,
          26,
          27,
          28,
          29,
          30,
          31,
          32,
          33,
          34,
          35,
          36,
          37,
          38,
          39,
          40,
          41,
          42,
          43,
          44,
          45,
          46,
          47,
          48,
          49,
          50,
          51,
          52,
          53,
          54,
          55,
          56,
          57,
          58,
          59,
          60,
          61,
          62,
          63,
          64,
          65,
          66,
          67,
          68,
          69,
          70,
          71,
          72,
          73,
          74,
          75,
          76,
          77,
          78,
          79,
          80,
          81,
          82,
          83,
          84,
          85,
          86,
          87,
          88,
          89,
          90,
          91,
          92,
          93,
          94,
          95,
          96,
          97,
          98,
          99,
          100,
          101,
          102,
          103,
          104,
          105,
          106,
          107,
          108,
          109,
          110,
          111,
          112,
          113,
          114,
          115,
          116,
          117,
          118,
          119,
          120,
          121,
          122,
          123,
          124,
          125,
          126,
          127,
          128,
          129,
          130,
          131,
          132,
          133,
          134,
          135,
          136,
          137,
          138,
          139,
          140,
          141,
          142,
          143,
          144,
          145,
          146,
          147,
          148,
          149,
          150
        ],
        "AcquisitionTime": [
          "181407.630000",
          "181410.240000",
          "181412.850000",
          "181415.460000",
          "181418.070000",
          "181420.682500",
          "181423.292500",
          "181425.902500",
          "181428.512500",
          "181431.122500",
          "181433.735000",
          "181436.345000",
          "181438.955000",
          "181441.565000",
          "181444.175000",
          "181446.785000",
          "181449.397500",
          "181452.007500",
          "181454.617500",
          "181457.227500",
          "181459.837500",
          "181502.447500",
          "181505.060000",
          "181507.670000",
          "181510.280000",
          "181512.890000",
          "181515.500000",
          "181518.112500",
          "181520.722500",
          "181523.332500",
          "181525.942500",
          "181528.552500",
          "181531.162500",
          "181533.775000",
          "181536.385000",
          "181538.995000",
          "181541.605000",
          "181544.215000",
          "181546.825000",
          "181549.437500",
          "181552.047500",
          "181554.657500",
          "181557.267500",
          "181559.877500",
          "181602.490000",
          "181605.100000",
          "181607.710000",
          "181610.320000",
          "181612.930000",
          "181615.540000",
          "181618.152500",
          "181620.762500",
          "181623.372500",
          "181625.982500",
          "181628.592500",
          "181631.202500",
          "181633.815000",
          "181636.425000",
          "181639.035000",
          "181641.645000",
          "181644.255000",
          "181646.867500",
          "181649.477500",
          "181652.087500",
          "181654.697500",
          "181657.307500",
          "181659.917500",
          "181702.530000",
          "181705.140000",
          "181707.750000",
          "181710.360000",
          "181712.970000",
          "181715.580000",
          "181718.192500",
          "181720.802500",
          "181723.412500",
          "181726.022500",
          "181728.632500",
          "181731.245000",
          "181733.855000",
          "181736.465000",
          "181739.075000",
          "181741.685000",
          "181744.295000",
          "181746.907500",
          "181749.517500",
          "181752.127500",
          "181754.737500",
          "181757.347500",
          "181759.957500",
          "181802.570000",
          "181805.180000",
          "181807.790000",
          "181810.400000",
          "181813.010000",
          "181815.622500",
          "181818.232500",
          "181820.842500",
          "181823.452500",
          "181826.062500",
          "181828.672500",
          "181831.285000",
          "181833.895000",
          "181836.505000",
          "181839.115000",
          "181841.725000",
          "181844.335000",
          "181846.947500",
          "181849.557500",
          "181852.167500",
          "181854.777500",
          "181857.387500",
          "181900.000000",
          "181902.610000",
          "181905.220000",
          "181907.830000",
          "181910.440000",
          "181913.050000",
          "181915.662500",
          "181918.272500",
          "181920.882500",
          "181923.492500",
          "181926.102500",
          "181928.712500",
          "181931.325000",
          "181933.935000",
          "181936.545000",
          "181939.155000",
          "181941.765000",
          "181944.377500",
          "181946.987500",
          "181949.597500",
          "181952.207500",
          "181954.817500",
          "181957.427500",
          "182000.040000",
          "182002.650000",
          "182005.260000",
          "182007.870000",
          "182010.480000",
          "182013.090000",
          "182015.702500",
          "182018.312500",
          "182020.922500",
          "182023.532500",
          "182026.142500",
          "182028.755000",
          "182031.365000",
          "182033.975000",
          "182036.585000"
        ],
        "ContentTime": [
          "181416.937000",
          "181416.937000",
          "181417.421000",
          "181419.921000",
          "181422.421000",
          "181424.937000",
          "181427.437000",
          "181430.437000",
          "181432.937000",
          "181435.437000",
          "181437.937000",
          "181440.937000",
          "181443.437000",
          "181445.937000",
          "181448.437000",
          "181450.937000",
          "181453.437000",
          "181456.437000",
          "181458.937000",
          "181501.437000",
          "181503.937000",
          "181506.437000",
          "181509.437000",
          "181511.937000",
          "181514.421000",
          "181516.921000",
          "181519.437000",
          "181522.437000",
          "181524.937000",
          "181527.437000",
          "181529.937000",
          "181532.437000",
          "181535.437000",
          "181537.937000",
          "181540.437000",
          "181542.937000",
          "181545.437000",
          "181548.437000",
          "181550.937000",
          "181553.437000",
          "181555.937000",
          "181558.437000",
          "181601.437000",
          "181603.937000",
          "181606.437000",
          "181608.921000",
          "181611.421000",
          "181614.421000",
          "181616.937000",
          "181619.437000",
          "181621.937000",
          "181624.937000",
          "181627.437000",
          "181629.937000",
          "181632.437000",
          "181634.937000",
          "181637.437000",
          "181640.437000",
          "181642.937000",
          "181645.437000",
          "181647.921000",
          "181650.437000",
          "181653.437000",
          "181655.937000",
          "181658.437000",
          "181700.937000",
          "181703.421000",
          "181706.437000",
          "181708.937000",
          "181711.421000",
          "181713.937000",
          "181716.437000",
          "181719.437000",
          "181721.937000",
          "181724.437000",
          "181726.937000",
          "181729.421000",
          "181732.437000",
          "181734.937000",
          "181737.437000",
          "181739.937000",
          "181742.421000",
          "181745.437000",
          "181747.937000",
          "181750.437000",
          "181752.937000",
          "181755.437000",
          "181758.437000",
          "181800.921000",
          "181803.437000",
          "181805.921000",
          "181808.937000",
          "181811.437000",
          "181813.937000",
          "181816.437000",
          "181818.937000",
          "181821.437000",
          "181824.437000",
          "181826.937000",
          "181829.437000",
          "181831.937000",
          "181834.437000",
          "181837.437000",
          "181839.937000",
          "181842.437000",
          "181844.937000",
          "181847.437000",
          "181850.437000",
          "181852.937000",
          "181855.437000",
          "181857.937000",
          "181900.437000",
          "181903.437000",
          "181905.937000",
          "181908.437000",
          "181910.937000",
          "181913.437000",
          "181916.437000",
          "181918.937000",
          "181921.437000",
          "181923.937000",
          "181926.437000",
          "181929.437000",
          "181931.937000",
          "181934.421000",
          "181936.937000",
          "181939.437000",
          "181942.437000",
          "181944.937000",
          "181947.437000",
          "181949.937000",
          "181952.937000",
          "181955.437000",
          "181957.921000",
          "182000.421000",
          "182002.937000",
          "182005.437000",
          "182008.421000",
          "182010.937000",
          "182013.437000",
          "182015.937000",
          "182018.437000",
          "182021.437000",
          "182023.937000",
          "182026.437000",
          "182028.937000",
          "182031.421000",
          "182034.437000",
          "182036.937000",
          "182044.203000"
        ],
        "InstanceCreationTime": [
          "181416.937000",
          "181416.937000",
          "181417.421000",
          "181419.921000",
          "181422.421000",
          "181424.937000",
          "181427.437000",
          "181430.437000",
          "181432.937000",
          "181435.437000",
          "181437.937000",
          "181440.937000",
          "181443.437000",
          "181445.937000",
          "181448.437000",
          "181450.937000",
          "181453.437000",
          "181456.437000",
          "181458.937000",
          "181501.437000",
          "181503.937000",
          "181506.437000",
          "181509.437000",
          "181511.937000",
          "181514.421000",
          "181516.921000",
          "181519.437000",
          "181522.437000",
          "181524.937000",
          "181527.437000",
          "181529.937000",
          "181532.437000",
          "181535.437000",
          "181537.937000",
          "181540.437000",
          "181542.937000",
          "181545.437000",
          "181548.437000",
          "181550.937000",
          "181553.437000",
          "181555.937000",
          "181558.437000",
          "181601.437000",
          "181603.937000",
          "181606.437000",
          "181608.921000",
          "181611.421000",
          "181614.421000",
          "181616.937000",
          "181619.437000",
          "181621.937000",
          "181624.937000",
          "181627.437000",
          "181629.937000",
          "181632.437000",
          "181634.937000",
          "181637.437000",
          "181640.437000",
          "181642.937000",
          "181645.437000",
          "181647.921000",
          "181650.437000",
          "181653.437000",
          "181655.937000",
          "181658.437000",
          "181700.937000",
          "181703.421000",
          "181706.437000",
          "181708.937000",
          "181711.421000",
          "181713.937000",
          "181716.437000",
          "181719.437000",
          "181721.937000",
          "181724.437000",
          "181726.937000",
          "181729.421000",
          "181732.437000",
          "181734.937000",
          "181737.437000",
          "181739.937000",
          "181742.421000",
          "181745.437000",
          "181747.937000",
          "181750.437000",
          "181752.937000",
          "181755.437000",
          "181758.437000",
          "181800.921000",
          "181803.437000",
          "181805.921000",
          "181808.937000",
          "181811.437000",
          "181813.937000",
          "181816.437000",
          "181818.937000",
          "181821.437000",
          "181824.437000",
          "181826.937000",
          "181829.437000",
          "181831.937000",
          "181834.437000",
          "181837.437000",
          "181839.937000",
          "181842.437000",
          "181844.937000",
          "181847.437000",
          "181850.437000",
          "181852.937000",
          "181855.437000",
          "181857.937000",
          "181900.437000",
          "181903.437000",
          "181905.937000",
          "181908.437000",
          "181910.937000",
          "181913.437000",
          "181916.437000",
          "181918.937000",
          "181921.437000",
          "181923.937000",
          "181926.437000",
          "181929.437000",
          "181931.937000",
          "181934.421000",
          "181936.937000",
          "181939.437000",
          "181942.437000",
          "181944.937000",
          "181947.437000",
          "181949.937000",
          "181952.937000",
          "181955.437000",
          "181957.921000",
          "182000.421000",
          "182002.937000",
          "182005.437000",
          "182008.421000",
          "182010.937000",
          "182013.437000",
          "182015.937000",
          "182018.437000",
          "182021.437000",
          "182023.937000",
          "182026.437000",
          "182028.937000",
          "182031.421000",
          "182034.437000",
          "182036.937000",
          "182044.203000"
        ],
        "InstanceNumber": [
          1,
          2,
          3,
          4,
          5,
          6,
          7,
          8,
          9,
          10,
          11,
          12,
          13,
          14,
          15,
          16,
          17,
          18,
          19,
          20,
          21,
          22,
          23,
          24,
          25,
          26,
          27,
          28,
          29,
          30,
          31,
          32,
          33,
          34,
          35,
          36,
          37,
          38,
          39,
          40,
          41,
          42,
          43,
          44,
          45,
          46,
          47,
          48,
          49,
          50,
          51,
          52,
          53,
          54,
          55,
          56,
          57,
          58,
          59,
          60,
          61,
          62,
          63,
          64,
          65,
          66,
          67,
          68,
          69,
          70,
          71,
          72,
          73,
          74,
          75,
          76,
          77,
          78,
          79,
          80,
          81,
          82,
          83,
          84,
          85,
          86,
          87,
          88,
          89,
          90,
          91,
          92,
          93,
          94,
          95,
          96,
          97,
          98,
          99,
          100,
          101,
          102,
          103,
          104,
          105,
          106,
          107,
          108,
          109,
          110,
          111,
          112,
          113,
          114,
          115,
          116,
          117,
          118,
          119,
          120,
          121,
          122,
          123,
          124,
          125,
          126,
          127,
          128,
          129,
          130,
          131,
          132,
          133,
          134,
          135,
          136,
          137,
          138,
          139,
          140,
          141,
          142,
          143,
          144,
          145,
          146,
          147,
          148,
          149,
          150
        ],
        "WindowCenter": [
          918.0,
          916.0,
          916.0,
          915.0,
          914.0,
          915.0,
          916.0,
          913.0,
          914.0,
          915.0,
          915.0,
          914.0,
          915.0,
          915.0,
          914.0,
          914.0,
          914.0,
          914.0,
          914.0,
          914.0,
          913.0,
          913.0,
          914.0,
          915.0,
          915.0,
          914.0,
          915.0,
          916.0,
          914.0,
          913.0,
          914.0,
          915.0,
          915.0,
          915.0,
          915.0,
          917.0,
          915.0,
          914.0,
          914.0,
          916.0,
          916.0,
          914.0,
          914.0,
          914.0,
          914.0,
          914.0,
          914.0,
          916.0,
          916.0,
          915.0,
          915.0,
          917.0,
          916.0,
          915.0,
          916.0,
          916.0,
          917.0,
          918.0,
          916.0,
          917.0,
          917.0,
          915.0,
          915.0,
          916.0,
          915.0,
          913.0,
          914.0,
          917.0,
          915.0,
          914.0,
          915.0,
          918.0,
          915.0,
          914.0,
          915.0,
          916.0,
          915.0,
          915.0,
          918.0,
          917.0,
          914.0,
          915.0,
          918.0,
          916.0,
          915.0,
          915.0,
          915.0,
          915.0,
          914.0,
          915.0,
          915.0,
          915.0,
          915.0,
          916.0,
          916.0,
          916.0,
          916.0,
          916.0,
          917.0,
          918.0,
          917.0,
          915.0,
          914.0,
          915.0,
          916.0,
          916.0,
          916.0,
          917.0,
          916.0,
          915.0,
          914.0,
          915.0,
          916.0,
          915.0,
          916.0,
          916.0,
          915.0,
          916.0,
          917.0,
          917.0,
          915.0,
          916.0,
          917.0,
          916.0,
          914.0,
          916.0,
          916.0,
          915.0,
          915.0,
          916.0,
          917.0,
          916.0,
          915.0,
          916.0,
          916.0,
          914.0,
          915.0,
          916.0,
          916.0,
          915.0,
          916.0,
          915.0,
          915.0,
          915.0,
          916.0,
          914.0,
          915.0,
          915.0,
          914.0,
          916.0
        ],
        "WindowWidth": [
          2106.0,
          2101.0,
          2100.0,
          2098.0,
          2095.0,
          2098.0,
          2099.0,
          2093.0,
          2094.0,
          2100.0,
          2097.0,
          2095.0,
          2100.0,
          2097.0,
          2094.0,
          2093.0,
          2095.0,
          2093.0,
          2095.0,
          2095.0,
          2093.0,
          2092.0,
          2094.0,
          2099.0,
          2097.0,
          2096.0,
          2097.0,
          2101.0,
          2095.0,
          2093.0,
          2094.0,
          2098.0,
          2098.0,
          2097.0,
          2100.0,
          2106.0,
          2099.0,
          2095.0,
          2096.0,
          2100.0,
          2099.0,
          2093.0,
          2095.0,
          2094.0,
          2096.0,
          2094.0,
          2094.0,
          2102.0,
          2101.0,
          2097.0,
          2098.0,
          2104.0,
          2102.0,
          2099.0,
          2100.0,
          2100.0,
          2103.0,
          2106.0,
          2100.0,
          2103.0,
          2104.0,
          2098.0,
          2097.0,
          2102.0,
          2098.0,
          2092.0,
          2095.0,
          2104.0,
          2099.0,
          2093.0,
          2099.0,
          2105.0,
          2097.0,
          2093.0,
          2099.0,
          2101.0,
          2096.0,
          2096.0,
          2106.0,
          2104.0,
          2095.0,
          2097.0,
          2108.0,
          2099.0,
          2097.0,
          2099.0,
          2097.0,
          2096.0,
          2095.0,
          2096.0,
          2099.0,
          2097.0,
          2098.0,
          2100.0,
          2100.0,
          2100.0,
          2100.0,
          2103.0,
          2104.0,
          2107.0,
          2103.0,
          2099.0,
          2095.0,
          2100.0,
          2102.0,
          2100.0,
          2101.0,
          2105.0,
          2102.0,
          2097.0,
          2095.0,
          2099.0,
          2098.0,
          2098.0,
          2100.0,
          2101.0,
          2098.0,
          2100.0,
          2104.0,
          2102.0,
          2098.0,
          2103.0,
          2106.0,
          2101.0,
          2095.0,
          2100.0,
          2101.0,
          2099.0,
          2097.0,
          2102.0,
          2103.0,
          2099.0,
          2097.0,
          2101.0,
          2098.0,
          2095.0,
          2098.0,
          2101.0,
          2100.0,
          2098.0,
          2099.0,
          2096.0,
          2096.0,
          2098.0,
          2099.0,
          2094.0,
          2097.0,
          2099.0,
          2097.0,
          2101.0
        ]
      },
      "slices": {}
    }
  },
  "dummy_trs": 0,
  "dvars_nstd": 75.84732280979867,
  "dvars_std": 1.062884925100671,
  "dvars_vstd": 1.0209481077181208,
  "efc": 0.5772457720355088,
  "fber": 233.48159790039062,
  "fd_mean": 0.048330782879557756,
  "fd_num": 0,
  "fd_perc": 0.0,
  "fwhm_avg": 3.069748878708843,
  "fwhm_x": 2.9133154058526034,
  "fwhm_y": 2.8627014274960882,
  "fwhm_z": 3.4332298027778383,
  "gcor": 0.00229815,
  "gsr_x": 0.06503665447235107,
  "gsr_y": 0.006799906957894564,
  "provenance": {
    "md5sum": "7b7eaf748f00d140e256eb590a451b9a",
    "settings": {
      "fd_thres": 0.2,
      "testing": false
    },
    "software": "mriqc",
    "version": "22.0.6",
    "webapi_port": null,
    "webapi_url": "https://mriqc.nimh.nih.gov/api/v1"
  },
  "size_t": 150,
  "size_x": 188,
  "size_y": 188,
  "size_z": 46,
  "snr": 1.866325196238459,
  "spacing_tr": 2.5999999046325684,
  "spacing_x": 1.0957447290420532,
  "spacing_y": 1.0957447290420532,
  "spacing_z": 1.099999189376831,
  "summary_bg_k": 39.09534344490695,
  "summary_bg_mad": 35.42430915831195,
  "summary_bg_mean": 118.64151000976562,
  "summary_bg_median": 60.766666412353516,
  "summary_bg_n": 1033830.0,
  "summary_bg_p05": 32.38666915893555,
  "summary_bg_p95": 366.97033386230424,
