{
  "aor": 0.0006728666666666667,
  "aqi": 0.011983977333333333,
  "bids_meta": {
    "AcquisitionMatrixPE": 188,
    "AcquisitionNumber": 1,
    "AcquisitionTime": "18:54:59.697500",
    "BandwidthPerPixelPhaseEncode": 19.46,
    "BaseResolution": 188,
    "CogAtlasID": "TODO",
    "ConversionSoftware": "dcm2niix",
    "ConversionSoftwareVersion": "v1.0.20180606 GCC4.8.5",
    "DelayTime": 1.2,
    "DerivedVendorReportedEchoSpacing": 0.000820013,
    "DeviceSerialNumber": "18930",
    "DwellTime": 1.9e-06,
    "EchoTime": 0.02,
    "EffectiveEchoSpacing": 0.000273338,
    "FlipAngle": 80,
    "ImageComments": "Unaliased_MB2_PE2",
    "ImageOrientationPatientDICOM": [
      0.999286,
      0.00236239,
      0.0377002,
      0.036887,
      0.154005,
      -0.987381
    ],
    "ImageType": [
      "ORIGINAL",
      "PRIMARY",
      "M",
      "MB",
      "ND",
      "MOSAIC"
    ],
    "InPlanePhaseEncodingDirectionDICOM": "COL",
    "InstitutionAddress": "Oxfordlaan_55_Maastricht_753AAF_Limburg_NL_6229_EV",
    "InstitutionName": "Scannexus",
    "InstitutionalDepartmentName": "MRI_7T",
    "MRAcquisitionType": "2D",
    "MagneticFieldStrength": 6.98,
    "Manufacturer": "Siemens",
    "ManufacturersModelName": "Investigational_Device_7T",
    "Modality": "MR",
    "MultibandAccelerationFactor": 2,
    "ParallelReductionFactorInPlane": 3,
    "PartialFourier": 0.75,
    "PatientPosition": "HFS",
    "PercentPhaseFOV": 100,
    "PhaseEncodingDirection": "j",
    "PhaseEncodingSteps": 141,
    "PhaseResolution": 1,
    "PixelBandwidth": 1400,
    "ProcedureStepDescription": "FeDem_Faruk",
    "ProtocolName": "cmrr_mbep2d_bold_AP_run9",
    "PulseSequenceDetails": "%CustomerSeq%_cmrr_mbep2d_bold",
    "ReceiveCoilName": "32Ch_Head_7T",
    "ReconMatrixPE": 188,
    "RepetitionTime": 2.6,
    "SAR": 0.0636251,
    "ScanOptions": "PFP_FS",
    "ScanningSequence": "EP",
    "SequenceName": "epfid2d1_188",
    "SequenceVariant": "SK_SS",
    "SeriesDescription": "cmrr_mbep2d_bold_AP_run9",
    "SeriesNumber": 22,
    "ShimSetting": [
      99,
      -96,
      385,
      439,
      -181,
      19,
      196,
      170
    ],
    "SliceThickness": 1.1,
    "SliceTiming": [
      0,
      0.735,
      0.0625,
      0.795,
      0.1225,
      0.8575,
      0.185,
      0.9175,
      0.245,
      0.9775,
      0.3075,
      1.04,
      0.3675,
      1.1,
      0.4275,
      1.1625,
      0.49,
      1.2225,
      0.55,
      1.285,
      0.6125,
      1.345,
      0.6725,
      0,
      0.735,
      0.0625,
      0.795,
      0.1225,
      0.8575,
      0.185,
      0.9175,
      0.245,
      0.9775,
      0.3075,
      1.04,
      0.3675,
      1.1,
      0.4275,
      1.1625,
      0.49,
      1.2225,
      0.55,
      1.285,
      0.6125,
      1.345,
      0.6725
    ],
    "SoftwareVersions": "syngo_MR_B17",
    "SpacingBetweenSlices": 1.1,
    "StationName": "MRC18930",
    "TaskName": "auditory",
    "TotalReadoutTime": 0.0511141,
    "TxRefAmp": 211,
    "dataset": "ds001942",
    "dcmmeta_affine": [
      [
        -1.0949627161026,
        0.04041874036192894,
        0.008952437900006771,
        97.66889953613281
      ],
      [
        -0.002588572446256876,
        0.16874977946281433,
        -1.0868732929229736,
        28.965768814086914
      ],
      [
        0.04130982235074043,
        1.0819178819656372,
        0.1691882312297821,
        -125.53909301757812
      ],
      [
        0.0,
        0.0,
        0.0,
        1.0
      ]
    ],
    "dcmmeta_reorient_transform": [
      [
        0.0,
        -1.0,
        0.0,
        187.0
      ],
      [
        1.0,
        0.0,
        0.0,
        0.0
      ],
      [
        0.0,
        0.0,
        1.0,
        0.0
      ],
      [
        0.0,
        0.0,
        0.0,
        1.0
      ]
    ],
    "dcmmeta_shape": [
      188,
      188,
      46,
      150
    ],
    "dcmmeta_slice_dim": 2,
    "dcmmeta_version": 0.6,
    "global": {
      "const": {
        "AcquisitionMatrix": [
          188,
          0,
          0,
          188
        ],
        "AngioFlag": "N",
        "BitsAllocated": 16,
        "BitsStored": 12,
        "Columns": 1316,
        "EchoNumbers": 1,
        "EchoTime": 20.0,
        "EchoTrainLength": 1,
        "FlipAngle": 80.0,
        "HighBit": 11,
        "ImageOrientationPatient": [
          0.9992863014427,
          0.0023623863258,
          0.03770022386964,
          0.03688700540101,
          0.15400465001157,
          -0.9873813430521
        ],
        "ImagePositionPatient": [
          -745.58233320233,
          -157.15681018518,
          663.68251557367
        ],
        "ImageType": [
          "ORIGINAL",
          "PRIMARY",
          "M",
          "MB",
          "ND",
          "MOSAIC"
        ],
        "ImagedNucleus": "1H",
        "ImagingFrequency": 297.205623,
        "InPlanePhaseEncodingDirection": "COL",
        "LargestImagePixelValue": 4095,
        "MRAcquisitionType": "2D",
        "MagneticFieldStrength": 6.98,
        "Manufacturer": "SIEMENS",
        "ManufacturerModelName": "Investigational_Device_7T",
        "Modality": "MR",
        "NumberOfAverages": 1.0,
        "NumberOfPhaseEncodingSteps": 141,
        "PercentPhaseFieldOfView": 100.0,
        "PercentSampling": 100.0,
        "PerformedProcedureStepStartTime": "172433.343000",
        "PhotometricInterpretation": "MONOCHROME2",
        "PixelBandwidth": 1400.0,
        "PixelRepresentation": 0,
        "PixelSpacing": [
          1.0957447290421,
          1.0957447290421
        ],
        "ProtocolName": "cmrr_mbep2d_bold_AP_run9",
        "RepetitionTime": 2600.0,
        "Rows": 1316,
        "SAR": 0.06362507860408,
        "SamplesPerPixel": 1,
        "ScanOptions": [
          "PFP",
          "FS"
        ],
        "ScanningSequence": "EP",
        "SequenceName": "epfid2d1_188",
        "SequenceVariant": [
          "SK",
          "SS"
        ],
        "SeriesDescription": "cmrr_mbep2d_bold_AP_run9",
        "SeriesNumber": 22,
        "SeriesTime": "185509.187000",
        "SliceLocation": -47.134106943425,
        "SliceThickness": 1.1000000238419,
        "SmallestImagePixelValue": 0,
        "SoftwareVersions": "syngo MR B17",
        "SpacingBetweenSlices": 1.0999992311947,
        "SpecificCharacterSet": "ISO_IR 100",
        "StudyID": "1",
        "StudyTime": "172433.281000",
        "TransmitCoilName": "32Ch_Head_7T",
        "VariableFlipAngleFlag": "N",
        "WindowCenterWidthExplanation": "Algo1",
        "dBdt": 0.0
      },
      "slices": {}
    },
    "modality": "bold",
    "run_id": 9,
    "session_id": "SES03",
    "subject_id": "S10",
    "task_id": "auditory",
    "time": {
      "samples": {
        "AcquisitionNumber": [
          1,
          2,
          3,
          4,
          5,
          6,
          7,
          8,
          9,
          10,
          11,
          12,
          13,
          14,
          15,
          16,
          17,
          18,
          19,
          20,
          21,
          22,
          23,
          24,
          25,
          26,
          27,
          28,
          29,
          30,
          31,
          32,
          33,
          34,
          35,
          36,
          37,
          38,
          39,
          40,
          41,
          42,
          43,
          44,
          45,
          46,
          47,
          48,
          49,
          50,
          51,
          52,
          53,
          54,
          55,
          56,
          57,
          58,
          59,
          60,
          61,
          62,
          63,
          64,
          65,
          66,
          67,
          68,
          69,
          70,
          71,
          72,
          73,
          74,
          75,
          76,
          77,
          78,
          79,
          80,
          81,
          82,
          83,
          84,
          85,
          86,
          87,
          88,
          89,
          90,
          91,
          92,
          93,
          94,
          95,
          96,
          97,
          98,
          99,
          100,
          101,
          102,
          103,
          104,
          105,
          106,
          107,
          108,
          109,
          110,
          111,
          112,
          113,
          114,
          115,
          116,
          117,
          118,
          119,
          120,
          121,
          122,
          123,
          124,
          125,
          126,
          127,
          128,
          129,
          130,
          131,
          132,
          133,
          134,
          135,
          136,
          137,
          138,
          139,
          140,
          141,
          142,
          143,
          144,
          145,
          146,
          147,
          148,
          149,
          150
        ],
        "AcquisitionTime": [
          "185459.697500",
          "185502.310000",
          "185504.920000",
          "185507.530000",
          "185510.140000",
          "185512.750000",
          "185515.360000",
          "185517.972500",
          "185520.582500",
          "185523.192500",
          "185525.802500",
          "185528.412500",
          "185531.025000",
          "185533.635000",
          "185536.245000",
          "185538.855000",
          "185541.465000",
          "185544.075000",
          "185546.687500",
          "185549.297500",
          "185551.907500",
          "185554.517500",
          "185557.127500",
          "185559.737500",
          "185602.350000",
          "185604.960000",
          "185607.570000",
          "185610.180000",
          "185612.790000",
          "185615.402500",
          "185618.012500",
          "185620.622500",
          "185623.232500",
          "185625.842500",
          "185628.452500",
          "185631.065000",
          "185633.675000",
          "185636.285000",
          "185638.895000",
          "185641.505000",
          "185644.115000",
          "185646.727500",
          "185649.337500",
          "185651.947500",
          "185654.557500",
          "185657.167500",
          "185659.780000",
          "185702.390000",
          "185705.000000",
          "185707.610000",
          "185710.220000",
          "185712.830000",
          "185715.442500",
          "185718.052500",
          "185720.662500",
          "185723.272500",
          "185725.882500",
          "185728.492500",
          "185731.105000",
          "185733.715000",
          "185736.325000",
          "185738.935000",
          "185741.545000",
          "185744.157500",
          "185746.767500",
          "185749.377500",
          "185751.987500",
          "185754.597500",
          "185757.207500",
          "185759.820000",
          "185802.430000",
          "185805.040000",
          "185807.650000",
          "185810.260000",
          "185812.870000",
          "185815.482500",
          "185818.092500",
          "185820.702500",
          "185823.312500",
          "185825.922500",
          "185828.535000",
          "185831.145000",
          "185833.755000",
          "185836.365000",
          "185838.975000",
          "185841.585000",
          "185844.197500",
          "185846.807500",
          "185849.417500",
          "185852.027500",
          "185854.637500",
          "185857.247500",
          "185859.860000",
          "185902.470000",
          "185905.080000",
          "185907.690000",
          "185910.300000",
          "185912.912500",
          "185915.522500",
          "185918.132500",
          "185920.742500",
          "185923.352500",
          "185925.962500",
          "185928.575000",
          "185931.185000",
          "185933.795000",
          "185936.405000",
          "185939.015000",
          "185941.625000",
          "185944.237500",
          "185946.847500",
          "185949.457500",
          "185952.067500",
          "185954.677500",
          "185957.290000",
          "185959.900000",
          "190002.510000",
          "190005.120000",
          "190007.730000",
          "190010.340000",
          "190012.952500",
          "190015.562500",
          "190018.172500",
          "190020.782500",
          "190023.392500",
          "190026.002500",
          "190028.615000",
          "190031.225000",
          "190033.835000",
          "190036.445000",
          "190039.055000",
          "190041.667500",
          "190044.277500",
          "190046.887500",
          "190049.497500",
          "190052.107500",
          "190054.717500",
          "190057.330000",
          "190059.940000",
          "190102.550000",
          "190105.160000",
          "190107.770000",
          "190110.380000",
          "190112.992500",
          "190115.602500",
          "190118.212500",
          "190120.822500",
          "190123.432500",
          "190126.045000",
          "190128.655000"
        ],
        "ContentTime": [
          "185509.187000",
          "185509.203000",
          "185509.687000",
          "185512.187000",
          "185514.687000",
          "185517.187000",
          "185520.187000",
          "185522.687000",
          "185525.187000",
          "185527.687000",
          "185530.187000",
          "185533.187000",
          "185535.687000",
          "185538.187000",
          "185540.687000",
          "185543.187000",
          "185546.187000",
          "185548.687000",
          "185551.187000",
          "185553.687000",
          "185556.687000",
          "185559.187000",
          "185601.687000",
          "185604.187000",
          "185606.687000",
          "185609.687000",
          "185612.187000",
          "185614.687000",
          "185617.187000",
          "185619.687000",
          "185622.187000",
          "185625.187000",
          "185627.687000",
          "185630.187000",
          "185632.687000",
          "185635.187000",
          "185638.187000",
          "185640.687000",
          "185643.187000",
          "185645.687000",
          "185648.187000",
          "185651.187000",
          "185653.687000",
          "185656.187000",
          "185658.687000",
          "185701.187000",
          "185704.187000",
          "185706.687000",
          "185709.187000",
          "185711.687000",
          "185714.687000",
          "185717.187000",
          "185719.687000",
          "185722.187000",
          "185724.687000",
          "185727.187000",
          "185730.187000",
          "185732.687000",
          "185735.187000",
          "185737.687000",
          "185740.187000",
          "185743.187000",
          "185745.687000",
          "185748.187000",
          "185750.687000",
          "185753.187000",
          "185756.187000",
          "185758.687000",
          "185801.187000",
          "185803.687000",
          "185806.187000",
          "185809.187000",
          "185811.687000",
          "185814.187000",
          "185816.687000",
          "185819.187000",
          "185822.187000",
          "185824.687000",
          "185827.187000",
          "185829.687000",
          "185832.187000",
          "185835.187000",
          "185837.687000",
          "185840.187000",
          "185842.687000",
          "185845.187000",
          "185848.187000",
          "185850.687000",
          "185853.187000",
          "185855.687000",
          "185858.187000",
          "185901.187000",
          "185903.687000",
          "185906.187000",
          "185908.687000",
          "185911.187000",
          "185914.187000",
          "185916.687000",
          "185919.187000",
          "185921.687000",
          "185924.687000",
          "185927.187000",
          "185929.687000",
          "185932.187000",
          "185934.687000",
          "185937.187000",
          "185940.187000",
          "185942.687000",
          "185945.187000",
          "185947.687000",
          "185950.187000",
          "185953.187000",
          "185955.687000",
          "185958.187000",
          "190000.687000",
          "190003.187000",
          "190006.187000",
          "190008.687000",
          "190011.187000",
          "190013.687000",
          "190016.187000",
          "190019.187000",
          "190021.687000",
          "190024.187000",
          "190026.687000",
          "190029.687000",
          "190032.187000",
          "190034.687000",
          "190037.187000",
          "190039.687000",
          "190042.187000",
          "190045.187000",
          "190047.687000",
          "190050.187000",
          "190052.687000",
          "190055.187000",
          "190058.187000",
          "190100.687000",
          "190103.187000",
          "190105.687000",
          "190108.187000",
          "190111.187000",
          "190113.687000",
          "190116.187000",
          "190118.687000",
          "190121.187000",
          "190124.187000",
          "190126.687000",
          "190129.187000",
          "190136.562000"
        ],
        "InstanceCreationTime": [
          "185509.187000",
          "185509.203000",
          "185509.687000",
          "185512.187000",
          "185514.687000",
          "185517.187000",
          "185520.187000",
          "185522.687000",
          "185525.187000",
          "185527.687000",
          "185530.187000",
          "185533.187000",
          "185535.687000",
          "185538.187000",
          "185540.687000",
          "185543.187000",
          "185546.187000",
          "185548.687000",
          "185551.187000",
          "185553.687000",
          "185556.687000",
          "185559.187000",
          "185601.687000",
          "185604.187000",
          "185606.687000",
          "185609.687000",
          "185612.187000",
          "185614.687000",
          "185617.187000",
          "185619.687000",
          "185622.187000",
          "185625.187000",
          "185627.687000",
          "185630.187000",
          "185632.687000",
          "185635.187000",
          "185638.187000",
          "185640.687000",
          "185643.187000",
          "185645.687000",
          "185648.187000",
          "185651.187000",
          "185653.687000",
          "185656.187000",
          "185658.687000",
          "185701.187000",
          "185704.187000",
          "185706.687000",
          "185709.187000",
          "185711.687000",
          "185714.687000",
          "185717.187000",
          "185719.687000",
          "185722.187000",
          "185724.687000",
          "185727.187000",
          "185730.187000",
          "185732.687000",
          "185735.187000",
          "185737.687000",
          "185740.187000",
          "185743.187000",
          "185745.687000",
          "185748.187000",
          "185750.687000",
          "185753.187000",
          "185756.187000",
          "185758.687000",
          "185801.187000",
          "185803.687000",
          "185806.187000",
          "185809.187000",
          "185811.687000",
          "185814.187000",
          "185816.687000",
          "185819.187000",
          "185822.187000",
          "185824.687000",
          "185827.187000",
          "185829.687000",
          "185832.187000",
          "185835.187000",
          "185837.687000",
          "185840.187000",
          "185842.687000",
          "185845.187000",
          "185848.187000",
          "185850.687000",
          "185853.187000",
          "185855.687000",
          "185858.187000",
          "185901.187000",
          "185903.687000",
          "185906.187000",
          "185908.687000",
          "185911.187000",
          "185914.187000",
          "185916.687000",
          "185919.187000",
          "185921.687000",
          "185924.687000",
          "185927.187000",
          "185929.687000",
          "185932.187000",
          "185934.687000",
          "185937.187000",
          "185940.187000",
          "185942.687000",
          "185945.187000",
          "185947.687000",
          "185950.187000",
          "185953.187000",
          "185955.687000",
          "185958.187000",
          "190000.687000",
          "190003.187000",
          "190006.187000",
          "190008.687000",
          "190011.187000",
          "190013.687000",
          "190016.187000",
          "190019.187000",
          "190021.687000",
          "190024.187000",
          "190026.687000",
          "190029.687000",
          "190032.187000",
          "190034.687000",
          "190037.187000",
          "190039.687000",
          "190042.187000",
          "190045.187000",
          "190047.687000",
          "190050.187000",
          "190052.687000",
          "190055.187000",
          "190058.187000",
          "190100.687000",
          "190103.187000",
          "190105.687000",
          "190108.187000",
          "190111.187000",
          "190113.687000",
          "190116.187000",
          "190118.687000",
          "190121.187000",
          "190124.187000",
          "190126.687000",
          "190129.187000",
          "190136.562000"
        ],
        "InstanceNumber": [
          1,
          2,
          3,
          4,
          5,
          6,
          7,
          8,
          9,
          10,
          11,
          12,
          13,
          14,
          15,
          16,
          17,
          18,
          19,
          20,
          21,
          22,
          23,
          24,
          25,
          26,
          27,
          28,
          29,
          30,
          31,
          32,
          33,
          34,
          35,
          36,
          37,
          38,
          39,
          40,
          41,
          42,
          43,
          44,
          45,
          46,
          47,
          48,
          49,
          50,
          51,
          52,
          53,
          54,
          55,
          56,
          57,
          58,
          59,
          60,
          61,
          62,
          63,
          64,
          65,
          66,
          67,
          68,
          69,
          70,
          71,
          72,
          73,
          74,
          75,
          76,
          77,
          78,
          79,
          80,
          81,
          82,
          83,
          84,
          85,
          86,
          87,
          88,
          89,
          90,
          91,
          92,
          93,
          94,
          95,
          96,
          97,
          98,
          99,
          100,
          101,
          102,
          103,
          104,
          105,
          106,
          107,
          108,
          109,
          110,
          111,
          112,
          113,
          114,
          115,
          116,
          117,
          118,
          119,
          120,
          121,
          122,
          123,
          124,
          125,
          126,
          127,
          128,
          129,
          130,
          131,
          132,
          133,
          134,
          135,
          136,
          137,
          138,
          139,
          140,
          141,
          142,
          143,
          144,
          145,
          146,
          147,
          148,
          149,
          150
        ],
        "WindowCenter": [
          915.0,
          914.0,
          912.0,
          911.0,
          911.0,
          912.0,
          911.0,
          910.0,
          911.0,
          911.0,
          911.0,
          912.0,
          911.0,
          911.0,
          912.0,
          912.0,
          910.0,
          910.0,
          912.0,
          911.0,
          911.0,
          912.0,
          912.0,
          911.0,
          911.0,
          912.0,
          911.0,
          911.0,
          911.0,
          912.0,
          913.0,
          911.0,
          910.0,
          911.0,
          913.0,
          911.0,
          910.0,
          911.0,
          913.0,
          913.0,
          911.0,
          911.0,
          911.0,
          913.0,
          912.0,
          911.0,
          911.0,
          913.0,
          912.0,
          912.0,
          912.0,
          913.0,
          912.0,
          911.0,
          912.0,
          914.0,
          912.0,
          911.0,
          912.0,
          913.0,
          913.0,
          913.0,
          914.0,
          913.0,
          913.0,
          913.0,
          913.0,
          912.0,
          913.0,
          914.0,
          914.0,
          912.0,
          912.0,
          914.0,
          913.0,
          913.0,
          915.0,
          914.0,
          912.0,
          914.0,
          915.0,
          912.0,
          911.0,
          912.0,
          913.0,
          914.0,
          912.0,
          912.0,
          915.0,
          914.0,
          913.0,
          913.0,
          913.0,
          916.0,
          916.0,
          913.0,
          913.0,
          915.0,
          915.0,
          914.0,
          914.0,
          914.0,
          913.0,
          913.0,
          914.0,
          914.0,
          914.0,
          915.0,
          915.0,
          914.0,
          913.0,
          916.0,
          917.0,
          914.0,
          913.0,
          915.0,
          915.0,
          913.0,
          914.0,
          915.0,
          915.0,
          913.0,
          915.0,
          913.0,
          912.0,
          914.0,
          915.0,
          912.0,
          911.0,
          913.0,
          913.0,
          913.0,
          913.0,
          914.0,
          913.0,
          912.0,
          913.0,
          914.0,
          913.0,
          913.0,
          913.0,
          914.0,
          915.0,
          913.0,
          912.0,
          913.0,
          914.0,
          913.0,
          912.0,
          913.0
        ],
        "WindowWidth": [
          2098.0,
          2093.0,
          2086.0,
          2084.0,
          2086.0,
          2089.0,
          2086.0,
          2083.0,
          2085.0,
          2085.0,
          2086.0,
          2089.0,
          2087.0,
          2086.0,
          2088.0,
          2087.0,
          2080.0,
          2081.0,
          2088.0,
          2085.0,
          2083.0,
          2088.0,
          2089.0,
          2085.0,
          2086.0,
          2088.0,
          2084.0,
          2085.0,
          2085.0,
          2090.0,
          2091.0,
          2085.0,
          2084.0,
          2087.0,
          2092.0,
          2085.0,
          2083.0,
          2085.0,
          2091.0,
          2089.0,
          2085.0,
          2084.0,
          2085.0,
          2090.0,
          2088.0,
          2085.0,
          2086.0,
          2090.0,
          2089.0,
          2089.0,
          2090.0,
          2091.0,
          2086.0,
          2084.0,
          2088.0,
          2092.0,
          2087.0,
          2084.0,
          2089.0,
          2091.0,
          2090.0,
          2092.0,
          2095.0,
          2090.0,
          2090.0,
          2090.0,
          2091.0,
          2089.0,
          2090.0,
          2094.0,
          2092.0,
          2089.0,
          2089.0,
          2094.0,
          2091.0,
          2091.0,
          2097.0,
          2092.0,
          2089.0,
          2095.0,
          2095.0,
          2089.0,
          2086.0,
          2087.0,
          2090.0,
          2093.0,
          2088.0,
          2088.0,
          2097.0,
          2095.0,
          2092.0,
          2091.0,
          2090.0,
          2100.0,
          2099.0,
          2091.0,
          2091.0,
          2095.0,
          2096.0,
          2094.0,
          2093.0,
          2092.0,
          2091.0,
          2092.0,
          2092.0,
          2092.0,
          2093.0,
          2095.0,
          2096.0,
          2094.0,
          2089.0,
          2100.0,
          2101.0,
          2093.0,
          2092.0,
          2097.0,
          2095.0,
          2089.0,
          2093.0,
          2096.0,
          2096.0,
          2093.0,
          2095.0,
          2091.0,
          2089.0,
          2094.0,
          2096.0,
          2086.0,
          2085.0,
          2091.0,
          2092.0,
          2089.0,
          2089.0,
          2092.0,
          2089.0,
          2088.0,
          2092.0,
          2093.0,
          2092.0,
          2091.0,
          2091.0,
          2093.0,
          2097.0,
          2091.0,
          2088.0,
          2092.0,
          2095.0,
          2090.0,
          2087.0,
          2090.0
        ]
      },
      "slices": {}
    }
  },
  "dummy_trs": 0,
  "dvars_nstd": 75.23805472348987,
  "dvars_std": 1.0570922841610744,
  "dvars_vstd": 1.0181874100000003,
  "efc": 0.5789783071789077,
  "fber": 229.79722595214844,
  "fd_mean": 0.04411371143711812,
  "fd_num": 0,
  "fd_perc": 0.0,
  "fwhm_avg": 3.064132985480583,
  "fwhm_x": 2.910778318585544,
  "fwhm_y": 2.850563563952243,
  "fwhm_z": 3.431057073903962,
  "gcor": 0.00220442,
  "gsr_x": 0.06867089867591858,
  "gsr_y": 0.0037869326770305634,
  "provenance": {
    "md5sum": "a947860bc10230998cef503c856e067b",
    "settings": {
      "fd_thres": 0.2,
      "testing": false
    },
    "software": "mriqc",
    "version": "22.0.6",
    "webapi_port": null,
    "webapi_url": "https://mriqc.nimh.nih.gov/api/v1"
  },
  "size_t": 150,
  "size_x": 188,
  "size_y": 188,
  "size_z": 46,
  "snr": 1.8900394906304283,
  "spacing_tr": 2.5999999046325684,
  "spacing_x": 1.0957447290420532,
  "spacing_y": 1.0957447290420532,
  "spacing_z": 1.099999189376831,
  "summary_bg_k": 37.53083027142451,
  "summary_bg_mad": 35.8196693728682,
  "summary_bg_mean": 119.94364166259766,
  "summary_bg_median": 61.046669006347656,
  "summary_bg_n": 1034864.0,
  "summary_bg_p05": 32.393333435058594,
  "summary_bg_p95": 376.39899597167954,
