{
  "aor": 0.0006924161073825503,
  "aqi": 0.01283585100671141,
  "bids_meta": {
    "AcquisitionMatrixPE": 188,
    "AcquisitionNumber": 1,
    "AcquisitionTime": "16:19:3.307500",
    "BandwidthPerPixelPhaseEncode": 19.46,
    "BaseResolution": 188,
    "CogAtlasID": "TODO",
    "ConversionSoftware": "dcm2niix",
    "ConversionSoftwareVersion": "v1.0.20180606 GCC4.8.5",
    "DelayTime": 1.2,
    "DerivedVendorReportedEchoSpacing": 0.000820013,
    "DeviceSerialNumber": "18930",
    "DwellTime": 1.9e-06,
    "EchoTime": 0.02,
    "EffectiveEchoSpacing": 0.000273338,
    "FlipAngle": 80,
    "ImageComments": "Unaliased_MB2_PE2",
    "ImageOrientationPatientDICOM": [
      0.998559,
      0.0512351,
      0.0159773,
      0.00912013,
      0.131378,
      -0.99129
    ],
    "ImageType": [
      "ORIGINAL",
      "PRIMARY",
      "M",
      "MB",
      "ND",
      "MOSAIC"
    ],
    "InPlanePhaseEncodingDirectionDICOM": "COL",
    "InstitutionAddress": "Oxfordlaan_55_Maastricht_753AAF_Limburg_NL_6229_EV",
    "InstitutionName": "Scannexus",
    "InstitutionalDepartmentName": "MRI_7T",
    "MRAcquisitionType": "2D",
    "MagneticFieldStrength": 6.98,
    "Manufacturer": "Siemens",
    "ManufacturersModelName": "Investigational_Device_7T",
    "Modality": "MR",
    "MultibandAccelerationFactor": 2,
    "ParallelReductionFactorInPlane": 3,
    "PartialFourier": 0.75,
    "PatientPosition": "HFS",
    "PercentPhaseFOV": 100,
    "PhaseEncodingDirection": "j",
    "PhaseEncodingSteps": 141,
    "PhaseResolution": 1,
    "PixelBandwidth": 1400,
    "ProcedureStepDescription": "FeDem_Faruk",
    "ProtocolName": "cmrr_mbep2d_bold_AP_run9",
    "PulseSequenceDetails": "%CustomerSeq%_cmrr_mbep2d_bold",
    "ReceiveCoilName": "32Ch_Head_7T",
    "ReconMatrixPE": 188,
    "RepetitionTime": 2.6,
    "SAR": 0.058125,
    "ScanOptions": "PFP_FS",
    "ScanningSequence": "EP",
    "SequenceName": "epfid2d1_188",
    "SequenceVariant": "SK_SS",
    "SeriesDescription": "cmrr_mbep2d_bold_AP_run9",
    "SeriesNumber": 22,
    "ShimSetting": [
      100,
      -69,
      465,
      394,
      -246,
      272,
      386,
      86
    ],
    "SliceThickness": 1.1,
    "SliceTiming": [
      0,
      0.735,
      0.0625,
      0.795,
      0.1225,
      0.8575,
      0.185,
      0.9175,
      0.245,
      0.98,
      0.3075,
      1.04,
      0.3675,
      1.1,
      0.43,
      1.1625,
      0.49,
      1.2225,
      0.55,
      1.285,
      0.6125,
      1.345,
      0.6725,
      0,
      0.735,
      0.0625,
      0.795,
      0.1225,
      0.8575,
      0.185,
      0.9175,
      0.245,
      0.98,
      0.3075,
      1.04,
      0.3675,
      1.1,
      0.43,
      1.1625,
      0.49,
      1.2225,
      0.55,
      1.285,
      0.6125,
      1.345,
      0.6725
    ],
    "SoftwareVersions": "syngo_MR_B17",
    "SpacingBetweenSlices": 1.1,
    "StationName": "MRC18930",
    "TaskName": "auditory",
    "TotalReadoutTime": 0.0511141,
    "TxRefAmp": 195,
    "dataset": "ds001942",
    "dcmmeta_affine": [
      [
        -1.094165563583374,
        0.009993336163461208,
        0.05817669257521629,
        101.1329345703125
      ],
      [
        -0.05614057183265686,
        0.14395633339881897,
        -1.0890082120895386,
        32.92335510253906
      ],
      [
        0.017507025972008705,
        1.0862013101577759,
        0.14379310607910156,
        -111.92818450927734
      ],
      [
        0.0,
        0.0,
        0.0,
        1.0
      ]
    ],
    "dcmmeta_reorient_transform": [
      [
        0.0,
        -1.0,
        0.0,
        187.0
      ],
      [
        1.0,
        0.0,
        0.0,
        0.0
      ],
      [
        0.0,
        0.0,
        1.0,
        0.0
      ],
      [
        0.0,
        0.0,
        0.0,
        1.0
      ]
    ],
    "dcmmeta_shape": [
      188,
      188,
      46,
      150
    ],
    "dcmmeta_slice_dim": 2,
    "dcmmeta_version": 0.6,
    "global": {
      "const": {
        "AcquisitionMatrix": [
          188,
          0,
          0,
          188
        ],
        "AngioFlag": "N",
        "BitsAllocated": 16,
        "BitsStored": 12,
        "Columns": 1316,
        "EchoNumbers": 1,
        "EchoTime": 20.0,
        "EchoTrainLength": 1,
        "FlipAngle": 80.0,
        "HighBit": 11,
        "ImageOrientationPatient": [
          0.99855880789424,
          0.05123508108882,
          0.01597728520941,
          0.00912013137267,
          0.13137761291988,
          -0.991290444838
        ],
        "ImagePositionPatient": [
          -725.74730394333,
          -172.69783867623,
          693.93501472834
        ],
        "ImageType": [
          "ORIGINAL",
          "PRIMARY",
          "M",
          "MB",
          "ND",
          "MOSAIC"
        ],
        "ImagedNucleus": "1H",
        "ImagingFrequency": 297.205556,
        "InPlanePhaseEncodingDirection": "COL",
        "LargestImagePixelValue": 4095,
        "MRAcquisitionType": "2D",
        "MagneticFieldStrength": 6.98,
        "Manufacturer": "SIEMENS",
        "ManufacturerModelName": "Investigational_Device_7T",
        "Modality": "MR",
        "NumberOfAverages": 1.0,
        "NumberOfPhaseEncodingSteps": 141,
        "PercentPhaseFieldOfView": 100.0,
        "PercentSampling": 100.0,
        "PerformedProcedureStepStartTime": "145017.984000",
        "PhotometricInterpretation": "MONOCHROME2",
        "PixelBandwidth": 1400.0,
        "PixelRepresentation": 0,
        "PixelSpacing": [
          1.0957447290421,
          1.0957447290421
        ],
        "ProtocolName": "cmrr_mbep2d_bold_AP_run9",
        "RepetitionTime": 2600.0,
        "Rows": 1316,
        "SAR": 0.05812496717415,
        "SamplesPerPixel": 1,
        "ScanOptions": [
          "PFP",
          "FS"
        ],
        "ScanningSequence": "EP",
        "SequenceName": "epfid2d1_188",
        "SequenceVariant": [
          "SK",
          "SS"
        ],
        "SeriesDescription": "cmrr_mbep2d_bold_AP_run9",
        "SeriesNumber": 22,
        "SeriesTime": "161912.515000",
        "SliceLocation": -41.877024908674,
        "SliceThickness": 1.1000000238419,
        "SmallestImagePixelValue": 0,
        "SoftwareVersions": "syngo MR B17",
        "SpacingBetweenSlices": 1.0999999933357,
        "SpecificCharacterSet": "ISO_IR 100",
        "StudyID": "1",
        "StudyTime": "145017.921000",
        "TransmitCoilName": "32Ch_Head_7T",
        "VariableFlipAngleFlag": "N",
        "WindowCenterWidthExplanation": "Algo1",
        "dBdt": 0.0
      },
      "slices": {}
    },
    "modality": "bold",
    "run_id": 9,
    "session_id": "SES03",
    "subject_id": "S03",
    "task_id": "auditory",
    "time": {
      "samples": {
        "AcquisitionNumber": [
          1,
          2,
          3,
          4,
          5,
          6,
          7,
          8,
          9,
          10,
          11,
          12,
          13,
          14,
          15,
          16,
          17,
          18,
          19,
          20,
          21,
          22,
          23,
          24,
          25,
          26,
          27,
          28,
          29,
          30,
          31,
          32,
          33,
          34,
          35,
          36,
          37,
          38,
          39,
          40,
          41,
          42,
          43,
          44,
          45,
          46,
          47,
          48,
          49,
          50,
          51,
          52,
          53,
          54,
          55,
          56,
          57,
          58,
          59,
          60,
          61,
          62,
          63,
          64,
          65,
          66,
          67,
          68,
          69,
          70,
          71,
          72,
          73,
          74,
          75,
          76,
          77,
          78,
          79,
          80,
          81,
          82,
          83,
          84,
          85,
          86,
          87,
          88,
          89,
          90,
          91,
          92,
          93,
          94,
          95,
          96,
          97,
          98,
          99,
          100,
          101,
          102,
          103,
          104,
          105,
          106,
          107,
          108,
          109,
          110,
          111,
          112,
          113,
          114,
          115,
          116,
          117,
          118,
          119,
          120,
          121,
          122,
          123,
          124,
          125,
          126,
          127,
          128,
          129,
          130,
          131,
          132,
          133,
          134,
          135,
          136,
          137,
          138,
          139,
          140,
          141,
          142,
          143,
          144,
          145,
          146,
          147,
          148,
          149,
          150
        ],
        "AcquisitionTime": [
          "161903.307500",
          "161905.920000",
          "161908.530000",
          "161911.140000",
          "161913.750000",
          "161916.360000",
          "161918.972500",
          "161921.582500",
          "161924.192500",
          "161926.802500",
          "161929.412500",
          "161932.022500",
          "161934.635000",
          "161937.245000",
          "161939.855000",
          "161942.465000",
          "161945.075000",
          "161947.687500",
          "161950.297500",
          "161952.907500",
          "161955.517500",
          "161958.127500",
          "162000.737500",
          "162003.350000",
          "162005.960000",
          "162008.570000",
          "162011.180000",
          "162013.790000",
          "162016.400000",
          "162019.012500",
          "162021.622500",
          "162024.232500",
          "162026.842500",
          "162029.452500",
          "162032.065000",
          "162034.675000",
          "162037.285000",
          "162039.895000",
          "162042.505000",
          "162045.115000",
          "162047.727500",
          "162050.337500",
          "162052.947500",
          "162055.557500",
          "162058.167500",
          "162100.777500",
          "162103.390000",
          "162106.000000",
          "162108.610000",
          "162111.220000",
          "162113.830000",
          "162116.442500",
          "162119.052500",
          "162121.662500",
          "162124.272500",
          "162126.882500",
          "162129.492500",
          "162132.105000",
          "162134.715000",
          "162137.325000",
          "162139.935000",
          "162142.545000",
          "162145.155000",
          "162147.767500",
          "162150.377500",
          "162152.987500",
          "162155.597500",
          "162158.207500",
          "162200.820000",
          "162203.430000",
          "162206.040000",
          "162208.650000",
          "162211.260000",
          "162213.870000",
          "162216.482500",
          "162219.092500",
          "162221.702500",
          "162224.312500",
          "162226.922500",
          "162229.532500",
          "162232.145000",
          "162234.755000",
          "162237.365000",
          "162239.975000",
          "162242.585000",
          "162245.197500",
          "162247.807500",
          "162250.417500",
          "162253.027500",
          "162255.637500",
          "162258.247500",
          "162300.860000",
          "162303.470000",
          "162306.080000",
          "162308.690000",
          "162311.300000",
          "162313.910000",
          "162316.522500",
          "162319.132500",
          "162321.742500",
          "162324.352500",
          "162326.962500",
          "162329.575000",
          "162332.185000",
          "162334.795000",
          "162337.405000",
          "162340.015000",
          "162342.625000",
          "162345.237500",
          "162347.847500",
          "162350.457500",
          "162353.067500",
          "162355.677500",
          "162358.287500",
          "162400.900000",
          "162403.510000",
          "162406.120000",
          "162408.730000",
          "162411.340000",
          "162413.952500",
          "162416.562500",
          "162419.172500",
          "162421.782500",
          "162424.392500",
          "162427.002500",
          "162429.615000",
          "162432.225000",
          "162434.835000",
          "162437.445000",
          "162440.055000",
          "162442.665000",
          "162445.277500",
          "162447.887500",
          "162450.497500",
          "162453.107500",
          "162455.717500",
          "162458.330000",
          "162500.940000",
          "162503.550000",
          "162506.160000",
          "162508.770000",
          "162511.380000",
          "162513.992500",
          "162516.602500",
          "162519.212500",
          "162521.822500",
          "162524.432500",
          "162527.042500",
          "162529.655000",
          "162532.265000"
        ],
        "ContentTime": [
          "161912.515000",
          "161912.515000",
          "161913.000000",
          "161915.500000",
          "161918.000000",
          "161920.500000",
          "161923.500000",
          "161926.000000",
          "161928.500000",
          "161931.000000",
          "161934.000000",
          "161936.500000",
          "161939.000000",
          "161941.500000",
          "161944.000000",
          "161947.000000",
          "161949.500000",
          "161952.000000",
          "161954.500000",
          "161957.000000",
          "162000.000000",
          "162002.500000",
          "162005.000000",
          "162007.500000",
          "162010.000000",
          "162013.000000",
          "162015.500000",
          "162018.000000",
          "162020.500000",
          "162023.000000",
          "162026.000000",
          "162028.500000",
          "162031.000000",
          "162033.500000",
          "162036.000000",
          "162039.000000",
          "162041.500000",
          "162044.000000",
          "162046.500000",
          "162049.000000",
          "162052.000000",
          "162054.500000",
          "162057.000000",
          "162059.500000",
          "162102.000000",
          "162105.000000",
          "162107.500000",
          "162110.000000",
          "162112.500000",
          "162115.000000",
          "162118.000000",
          "162120.500000",
          "162123.000000",
          "162125.500000",
          "162128.000000",
          "162131.000000",
          "162133.500000",
          "162136.000000",
          "162138.500000",
          "162141.000000",
          "162144.000000",
          "162146.500000",
          "162149.000000",
          "162151.500000",
          "162154.000000",
          "162157.000000",
          "162159.500000",
          "162202.000000",
          "162204.500000",
          "162207.000000",
          "162210.000000",
          "162212.500000",
          "162215.000000",
          "162217.500000",
          "162220.000000",
          "162223.000000",
          "162225.500000",
          "162228.000000",
          "162230.500000",
          "162233.000000",
          "162235.500000",
          "162238.500000",
          "162241.000000",
          "162243.500000",
          "162246.000000",
          "162249.000000",
          "162251.500000",
          "162254.000000",
          "162256.500000",
          "162259.000000",
          "162302.000000",
          "162304.500000",
          "162307.000000",
          "162309.500000",
          "162312.000000",
          "162315.000000",
          "162317.500000",
          "162320.000000",
          "162322.500000",
          "162325.000000",
          "162328.000000",
          "162330.500000",
          "162333.000000",
          "162335.500000",
          "162338.000000",
          "162341.000000",
          "162343.500000",
          "162346.000000",
          "162348.500000",
          "162351.000000",
          "162354.000000",
          "162356.500000",
          "162359.000000",
          "162401.500000",
          "162404.000000",
          "162407.000000",
          "162409.500000",
          "162412.000000",
          "162414.500000",
          "162417.000000",
          "162420.000000",
          "162422.500000",
          "162425.000000",
          "162427.500000",
          "162430.000000",
          "162433.000000",
          "162435.500000",
          "162438.000000",
          "162440.500000",
          "162443.000000",
          "162446.000000",
          "162448.500000",
          "162451.000000",
          "162453.500000",
          "162456.000000",
          "162459.000000",
          "162501.500000",
          "162504.000000",
          "162506.500000",
          "162509.000000",
          "162512.000000",
          "162514.500000",
          "162517.000000",
          "162519.500000",
          "162522.000000",
          "162525.000000",
          "162527.500000",
          "162530.000000",
          "162532.500000",
          "162539.890000"
        ],
        "InstanceCreationTime": [
          "161912.515000",
          "161912.515000",
          "161913.000000",
          "161915.500000",
          "161918.000000",
          "161920.500000",
          "161923.500000",
          "161926.000000",
          "161928.500000",
          "161931.000000",
          "161934.000000",
          "161936.500000",
          "161939.000000",
          "161941.500000",
          "161944.000000",
          "161947.000000",
          "161949.500000",
          "161952.000000",
          "161954.500000",
          "161957.000000",
          "162000.000000",
          "162002.500000",
          "162005.000000",
          "162007.500000",
          "162010.000000",
          "162013.000000",
          "162015.500000",
          "162018.000000",
          "162020.500000",
          "162023.000000",
          "162026.000000",
          "162028.500000",
          "162031.000000",
          "162033.500000",
          "162036.000000",
          "162039.000000",
          "162041.500000",
          "162044.000000",
          "162046.500000",
          "162049.000000",
          "162052.000000",
          "162054.500000",
          "162057.000000",
          "162059.500000",
          "162102.000000",
          "162105.000000",
          "162107.500000",
          "162110.000000",
          "162112.500000",
          "162115.000000",
          "162118.000000",
          "162120.500000",
          "162123.000000",
          "162125.500000",
          "162128.000000",
          "162131.000000",
          "162133.500000",
          "162136.000000",
          "162138.500000",
          "162141.000000",
          "162144.000000",
          "162146.500000",
          "162149.000000",
          "162151.500000",
          "162154.000000",
          "162157.000000",
          "162159.500000",
          "162202.000000",
          "162204.500000",
          "162207.000000",
          "162210.000000",
          "162212.500000",
          "162215.000000",
          "162217.500000",
          "162220.000000",
          "162223.000000",
          "162225.500000",
          "162228.000000",
          "162230.500000",
          "162233.000000",
          "162235.500000",
          "162238.500000",
          "162241.000000",
          "162243.500000",
          "162246.000000",
          "162249.000000",
          "162251.500000",
          "162254.000000",
          "162256.500000",
          "162259.000000",
          "162302.000000",
          "162304.500000",
          "162307.000000",
          "162309.500000",
          "162312.000000",
          "162315.000000",
          "162317.500000",
          "162320.000000",
          "162322.500000",
          "162325.000000",
          "162328.000000",
          "162330.500000",
          "162333.000000",
          "162335.500000",
          "162338.000000",
          "162341.000000",
          "162343.500000",
          "162346.000000",
          "162348.500000",
          "162351.000000",
          "162354.000000",
          "162356.500000",
          "162359.000000",
          "162401.500000",
          "162404.000000",
          "162407.000000",
          "162409.500000",
          "162412.000000",
          "162414.500000",
          "162417.000000",
          "162420.000000",
          "162422.500000",
          "162425.000000",
          "162427.500000",
          "162430.000000",
          "162433.000000",
          "162435.500000",
          "162438.000000",
          "162440.500000",
          "162443.000000",
          "162446.000000",
          "162448.500000",
          "162451.000000",
          "162453.500000",
          "162456.000000",
          "162459.000000",
          "162501.500000",
          "162504.000000",
          "162506.500000",
          "162509.000000",
          "162512.000000",
          "162514.500000",
          "162517.000000",
          "162519.500000",
          "162522.000000",
          "162525.000000",
          "162527.500000",
          "162530.000000",
          "162532.500000",
          "162539.890000"
        ],
        "InstanceNumber": [
          1,
          2,
          3,
          4,
          5,
          6,
          7,
          8,
          9,
          10,
          11,
          12,
          13,
          14,
          15,
          16,
          17,
          18,
          19,
          20,
          21,
          22,
          23,
          24,
          25,
          26,
          27,
          28,
          29,
          30,
          31,
          32,
          33,
          34,
          35,
          36,
          37,
          38,
          39,
          40,
          41,
          42,
          43,
          44,
          45,
          46,
          47,
          48,
          49,
          50,
          51,
          52,
          53,
          54,
          55,
          56,
          57,
          58,
          59,
          60,
          61,
          62,
          63,
          64,
          65,
          66,
          67,
          68,
          69,
          70,
          71,
          72,
          73,
          74,
          75,
          76,
          77,
          78,
          79,
          80,
          81,
          82,
          83,
          84,
          85,
          86,
          87,
          88,
          89,
          90,
          91,
          92,
          93,
          94,
          95,
          96,
          97,
          98,
          99,
          100,
          101,
          102,
          103,
          104,
          105,
          106,
          107,
          108,
          109,
          110,
          111,
          112,
          113,
          114,
          115,
          116,
          117,
          118,
          119,
          120,
          121,
          122,
          123,
          124,
          125,
          126,
          127,
          128,
          129,
          130,
          131,
          132,
          133,
          134,
          135,
          136,
          137,
          138,
          139,
          140,
          141,
          142,
          143,
          144,
          145,
          146,
          147,
          148,
          149,
          150
        ],
        "WindowCenter": [
          872.0,
          869.0,
          869.0,
          870.0,
          869.0,
          869.0,
          871.0,
          868.0,
          866.0,
          868.0,
          870.0,
          869.0,
          868.0,
          868.0,
          869.0,
          869.0,
          869.0,
          868.0,
          868.0,
          868.0,
          868.0,
          869.0,
          868.0,
          869.0,
          869.0,
          869.0,
          869.0,
          870.0,
          870.0,
          869.0,
          868.0,
          869.0,
          868.0,
          867.0,
          866.0,
          867.0,
          868.0,
          869.0,
          869.0,
          869.0,
          869.0,
          869.0,
          869.0,
          869.0,
          868.0,
          868.0,
          869.0,
          869.0,
          868.0,
          868.0,
          870.0,
          869.0,
          869.0,
          867.0,
          868.0,
          870.0,
          869.0,
          868.0,
          869.0,
          869.0,
          869.0,
          869.0,
          869.0,
          869.0,
          868.0,
          868.0,
          869.0,
          868.0,
          869.0,
          870.0,
          869.0,
          868.0,
          868.0,
          869.0,
          869.0,
          868.0,
          868.0,
          869.0,
          869.0,
          869.0,
          869.0,
          870.0,
          869.0,
          869.0,
          869.0,
          869.0,
          869.0,
          869.0,
          869.0,
          869.0,
          870.0,
          869.0,
          869.0,
          869.0,
          870.0,
          869.0,
          868.0,
          869.0,
          869.0,
          868.0,
          867.0,
          868.0,
          869.0,
          869.0,
          869.0,
          868.0,
          869.0,
          869.0,
          868.0,
          869.0,
          870.0,
          870.0,
          869.0,
          868.0,
          869.0,
          869.0,
          869.0,
          869.0,
          868.0,
          868.0,
          869.0,
          869.0,
          867.0,
          868.0,
          869.0,
          870.0,
          869.0,
          869.0,
          869.0,
          869.0,
          868.0,
          868.0,
          869.0,
          869.0,
          868.0,
          868.0,
          868.0,
          869.0,
          870.0,
          870.0,
          871.0,
          870.0,
          868.0,
          868.0,
          872.0,
          868.0,
          867.0,
          867.0,
          868.0,
          868.0
        ],
        "WindowWidth": [
          2041.0,
          2032.0,
          2036.0,
          2037.0,
          2034.0,
          2034.0,
          2040.0,
          2027.0,
          2023.0,
          2030.0,
          2035.0,
          2031.0,
          2030.0,
          2030.0,
          2032.0,
          2033.0,
          2031.0,
          2027.0,
          2026.0,
          2028.0,
          2030.0,
          2031.0,
          2031.0,
          2032.0,
          2034.0,
          2032.0,
          2034.0,
          2038.0,
          2034.0,
          2034.0,
          2030.0,
          2034.0,
          2031.0,
          2025.0,
          2024.0,
          2026.0,
          2029.0,
          2031.0,
          2031.0,
          2032.0,
          2033.0,
          2032.0,
          2034.0,
          2032.0,
          2029.0,
          2030.0,
          2031.0,
          2033.0,
          2028.0,
          2030.0,
          2038.0,
          2033.0,
          2030.0,
          2026.0,
          2030.0,
          2035.0,
          2032.0,
          2029.0,
          2032.0,
          2031.0,
          2032.0,
          2034.0,
          2032.0,
          2032.0,
          2029.0,
          2029.0,
          2031.0,
          2029.0,
          2032.0,
          2037.0,
          2032.0,
          2027.0,
          2029.0,
          2031.0,
          2031.0,
          2027.0,
          2029.0,
          2032.0,
          2030.0,
          2031.0,
          2033.0,
          2034.0,
          2031.0,
          2033.0,
          2033.0,
          2032.0,
          2032.0,
          2033.0,
          2032.0,
          2034.0,
          2036.0,
          2033.0,
          2033.0,
          2034.0,
          2034.0,
          2031.0,
          2031.0,
          2032.0,
          2031.0,
          2028.0,
          2026.0,
          2028.0,
          2032.0,
          2033.0,
          2031.0,
          2029.0,
          2032.0,
          2034.0,
          2029.0,
          2033.0,
          2035.0,
          2035.0,
          2031.0,
          2028.0,
          2032.0,
          2032.0,
          2033.0,
          2030.0,
          2030.0,
          2029.0,
          2033.0,
          2031.0,
          2027.0,
          2030.0,
          2033.0,
          2034.0,
          2032.0,
          2031.0,
          2032.0,
          2033.0,
          2029.0,
          2029.0,
          2031.0,
          2034.0,
          2030.0,
          2028.0,
          2029.0,
          2032.0,
          2035.0,
          2036.0,
          2042.0,
          2037.0,
          2030.0,
          2030.0,
          2041.0,
          2030.0,
          2022.0,
          2025.0,
          2028.0,
          2027.0
        ]
      },
      "slices": {}
    }
  },
  "dummy_trs": 1,
  "dvars_nstd": 74.94107050540538,
  "dvars_std": 1.0974778653378379,
  "dvars_vstd": 1.010628201554054,
  "efc": 0.545099297913066,
  "fber": 445.5523986816406,
  "fd_mean": 0.09215725454601069,
  "fd_num": 2,
  "fd_perc": 1.342281879194631,
  "fwhm_avg": 2.89472684483017,
  "fwhm_x": 2.792365702434122,
  "fwhm_y": 2.7933330810323533,
  "fwhm_z": 3.0984817510240346,
  "gcor": 0.00213324,
  "gsr_x": -0.012717274017632008,
  "gsr_y": 0.05573157221078873,
  "provenance": {
    "md5sum": "d30c8053f2d0eb1f2c9360ba15714739",
    "settings": {
      "fd_thres": 0.2,
      "testing": false
    },
    "software": "mriqc",
    "version": "22.0.0rc1",
    "webapi_port": null,
    "webapi_url": "https://mriqc.nimh.nih.gov/api/v1"
  },
  "size_t": 149,
  "size_x": 188,
  "size_y": 188,
  "size_z": 46,
  "snr": 2.3054032844804078,
  "spacing_tr": 2.5999999046325684,
  "spacing_x": 1.0957447290420532,
  "spacing_y": 1.0957447290420532,
  "spacing_z": 1.100000023841858,
  "summary_bg_k": 54.61186794676676,
  "summary_bg_mad": 22.34848762608996,
  "summary_bg_mean": 78.92926025390625,
  "summary_bg_median": 47.13422775268555,
  "summary_bg_n": 1085282.0,
  "summary_bg_p05": 30.624160766601562,
