{
  "aor": 0.0005212,
  "aqi": 0.014314269999999999,
  "bids_meta": {
    "AcquisitionMatrixPE": 188,
    "AcquisitionNumber": 1,
    "AcquisitionTime": "16:03:46.275000",
    "BandwidthPerPixelPhaseEncode": 19.46,
    "BaseResolution": 188,
    "CogAtlasID": "TODO",
    "ConversionSoftware": "dcm2niix",
    "ConversionSoftwareVersion": "v1.0.20180606 GCC4.8.5",
    "DelayTime": 1.2,
    "DerivedVendorReportedEchoSpacing": 0.000820013,
    "DeviceSerialNumber": "18930",
    "DwellTime": 1.9e-06,
    "EchoTime": 0.02,
    "EffectiveEchoSpacing": 0.000273338,
    "FlipAngle": 80,
    "ImageComments": "Unaliased_MB2_PE2",
    "ImageOrientationPatientDICOM": [
      0.998559,
      0.0512351,
      0.0159773,
      0.00912013,
      0.131378,
      -0.99129
    ],
    "ImageType": [
      "ORIGINAL",
      "PRIMARY",
      "M",
      "MB",
      "ND",
      "MOSAIC"
    ],
    "InPlanePhaseEncodingDirectionDICOM": "COL",
    "InstitutionAddress": "Oxfordlaan_55_Maastricht_753AAF_Limburg_NL_6229_EV",
    "InstitutionName": "Scannexus",
    "InstitutionalDepartmentName": "MRI_7T",
    "MRAcquisitionType": "2D",
    "MagneticFieldStrength": 6.98,
    "Manufacturer": "Siemens",
    "ManufacturersModelName": "Investigational_Device_7T",
    "Modality": "MR",
    "MultibandAccelerationFactor": 2,
    "ParallelReductionFactorInPlane": 3,
    "PartialFourier": 0.75,
    "PatientPosition": "HFS",
    "PercentPhaseFOV": 100,
    "PhaseEncodingDirection": "j",
    "PhaseEncodingSteps": 141,
    "PhaseResolution": 1,
    "PixelBandwidth": 1400,
    "ProcedureStepDescription": "FeDem_Faruk",
    "ProtocolName": "cmrr_mbep2d_bold_AP_run7",
    "PulseSequenceDetails": "%CustomerSeq%_cmrr_mbep2d_bold",
    "ReceiveCoilName": "32Ch_Head_7T",
    "ReconMatrixPE": 188,
    "RepetitionTime": 2.6,
    "SAR": 0.0579536,
    "ScanOptions": "PFP_FS",
    "ScanningSequence": "EP",
    "SequenceName": "epfid2d1_188",
    "SequenceVariant": "SK_SS",
    "SeriesDescription": "cmrr_mbep2d_bold_AP_run7",
    "SeriesNumber": 20,
    "ShimSetting": [
      100,
      -69,
      465,
      394,
      -246,
      272,
      386,
      86
    ],
    "SliceThickness": 1.1,
    "SliceTiming": [
      0,
      0.7325,
      0.06,
      0.795,
      0.1225,
      0.855,
      0.1825,
      0.915,
      0.245,
      0.9775,
      0.305,
      1.0375,
      0.365,
      1.1,
      0.4275,
      1.16,
      0.4875,
      1.2225,
      0.55,
      1.2825,
      0.61,
      1.345,
      0.6725,
      0,
      0.7325,
      0.06,
      0.795,
      0.1225,
      0.855,
      0.1825,
      0.915,
      0.245,
      0.9775,
      0.305,
      1.0375,
      0.365,
      1.1,
      0.4275,
      1.16,
      0.4875,
      1.2225,
      0.55,
      1.2825,
      0.61,
      1.345,
      0.6725
    ],
    "SoftwareVersions": "syngo_MR_B17",
    "SpacingBetweenSlices": 1.1,
    "StationName": "MRC18930",
    "TaskName": "auditory",
    "TotalReadoutTime": 0.0511141,
    "TxRefAmp": 195,
    "dataset": "ds001942",
    "dcmmeta_affine": [
      [
        -1.094165563583374,
        0.009993336163461208,
        0.05817669257521629,
        101.1329345703125
      ],
      [
        -0.05614057183265686,
        0.14395633339881897,
        -1.0890082120895386,
        32.92335510253906
      ],
      [
        0.017507025972008705,
        1.0862013101577759,
        0.14379310607910156,
        -111.92818450927734
      ],
      [
        0.0,
        0.0,
        0.0,
        1.0
      ]
    ],
    "dcmmeta_reorient_transform": [
      [
        0.0,
        -1.0,
        0.0,
        187.0
      ],
      [
        1.0,
        0.0,
        0.0,
        0.0
      ],
      [
        0.0,
        0.0,
        1.0,
        0.0
      ],
      [
        0.0,
        0.0,
        0.0,
        1.0
      ]
    ],
    "dcmmeta_shape": [
      188,
      188,
      46,
      150
    ],
    "dcmmeta_slice_dim": 2,
    "dcmmeta_version": 0.6,
    "global": {
      "const": {
        "AcquisitionMatrix": [
          188,
          0,
          0,
          188
        ],
        "AngioFlag": "N",
        "BitsAllocated": 16,
        "BitsStored": 12,
        "Columns": 1316,
        "EchoNumbers": 1,
        "EchoTime": 20.0,
        "EchoTrainLength": 1,
        "FlipAngle": 80.0,
        "HighBit": 11,
        "ImageOrientationPatient": [
          0.99855880789424,
          0.05123508108882,
          0.01597728520941,
          0.00912013137267,
          0.13137761291988,
          -0.991290444838
        ],
        "ImagePositionPatient": [
          -725.74730394333,
          -172.69783867623,
          693.93501472834
        ],
        "ImageType": [
          "ORIGINAL",
          "PRIMARY",
          "M",
          "MB",
          "ND",
          "MOSAIC"
        ],
        "ImagedNucleus": "1H",
        "ImagingFrequency": 297.205549,
        "InPlanePhaseEncodingDirection": "COL",
        "LargestImagePixelValue": 4095,
        "MRAcquisitionType": "2D",
        "MagneticFieldStrength": 6.98,
        "Manufacturer": "SIEMENS",
        "ManufacturerModelName": "Investigational_Device_7T",
        "Modality": "MR",
        "NumberOfAverages": 1.0,
        "NumberOfPhaseEncodingSteps": 141,
        "PercentPhaseFieldOfView": 100.0,
        "PercentSampling": 100.0,
        "PerformedProcedureStepStartTime": "145017.984000",
        "PhotometricInterpretation": "MONOCHROME2",
        "PixelBandwidth": 1400.0,
        "PixelRepresentation": 0,
        "PixelSpacing": [
          1.0957447290421,
          1.0957447290421
        ],
        "ProtocolName": "cmrr_mbep2d_bold_AP_run7",
        "RepetitionTime": 2600.0,
        "Rows": 1316,
        "SAR": 0.05795364105032,
        "SamplesPerPixel": 1,
        "ScanOptions": [
          "PFP",
          "FS"
        ],
        "ScanningSequence": "EP",
        "SequenceName": "epfid2d1_188",
        "SequenceVariant": [
          "SK",
          "SS"
        ],
        "SeriesDescription": "cmrr_mbep2d_bold_AP_run7",
        "SeriesNumber": 20,
        "SeriesTime": "160355.593000",
        "SliceLocation": -41.877024908674,
        "SliceThickness": 1.1000000238419,
        "SmallestImagePixelValue": 0,
        "SoftwareVersions": "syngo MR B17",
        "SpacingBetweenSlices": 1.0999999933357,
        "SpecificCharacterSet": "ISO_IR 100",
        "StudyID": "1",
        "StudyTime": "145017.921000",
        "TransmitCoilName": "32Ch_Head_7T",
        "VariableFlipAngleFlag": "N",
        "WindowCenterWidthExplanation": "Algo1",
        "dBdt": 0.0
      },
      "slices": {}
    },
    "modality": "bold",
    "run_id": 7,
    "session_id": "SES03",
    "subject_id": "S03",
    "task_id": "auditory",
    "time": {
      "samples": {
        "AcquisitionNumber": [
          1,
          2,
          3,
          4,
          5,
          6,
          7,
          8,
          9,
          10,
          11,
          12,
          13,
          14,
          15,
          16,
          17,
          18,
          19,
          20,
          21,
          22,
          23,
          24,
          25,
          26,
          27,
          28,
          29,
          30,
          31,
          32,
          33,
          34,
          35,
          36,
          37,
          38,
          39,
          40,
          41,
          42,
          43,
          44,
          45,
          46,
          47,
          48,
          49,
          50,
          51,
          52,
          53,
          54,
          55,
          56,
          57,
          58,
          59,
          60,
          61,
          62,
          63,
          64,
          65,
          66,
          67,
          68,
          69,
          70,
          71,
          72,
          73,
          74,
          75,
          76,
          77,
          78,
          79,
          80,
          81,
          82,
          83,
          84,
          85,
          86,
          87,
          88,
          89,
          90,
          91,
          92,
          93,
          94,
          95,
          96,
          97,
          98,
          99,
          100,
          101,
          102,
          103,
          104,
          105,
          106,
          107,
          108,
          109,
          110,
          111,
          112,
          113,
          114,
          115,
          116,
          117,
          118,
          119,
          120,
          121,
          122,
          123,
          124,
          125,
          126,
          127,
          128,
          129,
          130,
          131,
          132,
          133,
          134,
          135,
          136,
          137,
          138,
          139,
          140,
          141,
          142,
          143,
          144,
          145,
          146,
          147,
          148,
          149,
          150
        ],
        "AcquisitionTime": [
          "160346.275000",
          "160348.885000",
          "160351.495000",
          "160354.105000",
          "160356.717500",
          "160359.327500",
          "160401.937500",
          "160404.547500",
          "160407.157500",
          "160409.767500",
          "160412.380000",
          "160414.990000",
          "160417.600000",
          "160420.210000",
          "160422.820000",
          "160425.430000",
          "160428.042500",
          "160430.652500",
          "160433.262500",
          "160435.872500",
          "160438.482500",
          "160441.095000",
          "160443.705000",
          "160446.315000",
          "160448.925000",
          "160451.535000",
          "160454.145000",
          "160456.757500",
          "160459.367500",
          "160501.977500",
          "160504.587500",
          "160507.197500",
          "160509.807500",
          "160512.420000",
          "160515.030000",
          "160517.640000",
          "160520.250000",
          "160522.860000",
          "160525.472500",
          "160528.082500",
          "160530.692500",
          "160533.302500",
          "160535.912500",
          "160538.522500",
          "160541.135000",
          "160543.745000",
          "160546.355000",
          "160548.965000",
          "160551.575000",
          "160554.185000",
          "160556.797500",
          "160559.407500",
          "160602.017500",
          "160604.627500",
          "160607.237500",
          "160609.850000",
          "160612.460000",
          "160615.070000",
          "160617.680000",
          "160620.290000",
          "160622.900000",
          "160625.512500",
          "160628.122500",
          "160630.732500",
          "160633.342500",
          "160635.952500",
          "160638.565000",
          "160641.175000",
          "160643.785000",
          "160646.395000",
          "160649.005000",
          "160651.615000",
          "160654.227500",
          "160656.837500",
          "160659.447500",
          "160702.057500",
          "160704.667500",
          "160707.277500",
          "160709.890000",
          "160712.500000",
          "160715.110000",
          "160717.720000",
          "160720.330000",
          "160722.942500",
          "160725.552500",
          "160728.162500",
          "160730.772500",
          "160733.382500",
          "160735.992500",
          "160738.605000",
          "160741.215000",
          "160743.825000",
          "160746.435000",
          "160749.045000",
          "160751.655000",
          "160754.267500",
          "160756.877500",
          "160759.487500",
          "160802.097500",
          "160804.707500",
          "160807.320000",
          "160809.930000",
          "160812.540000",
          "160815.150000",
          "160817.760000",
          "160820.370000",
          "160822.982500",
          "160825.592500",
          "160828.202500",
          "160830.812500",
          "160833.422500",
          "160836.032500",
          "160838.645000",
          "160841.255000",
          "160843.865000",
          "160846.475000",
          "160849.085000",
          "160851.697500",
          "160854.307500",
          "160856.917500",
          "160859.527500",
          "160902.137500",
          "160904.747500",
          "160907.360000",
          "160909.970000",
          "160912.580000",
          "160915.190000",
          "160917.800000",
          "160920.410000",
          "160923.022500",
          "160925.632500",
          "160928.242500",
          "160930.852500",
          "160933.462500",
          "160936.075000",
          "160938.685000",
          "160941.295000",
          "160943.905000",
          "160946.515000",
          "160949.125000",
          "160951.737500",
          "160954.347500",
          "160956.957500",
          "160959.567500",
          "161002.177500",
          "161004.787500",
          "161007.400000",
          "161010.010000",
          "161012.620000",
          "161015.230000"
        ],
        "ContentTime": [
          "160355.609000",
          "160355.609000",
          "160356.593000",
          "160358.593000",
          "160401.093000",
          "160403.593000",
          "160406.593000",
          "160409.093000",
          "160411.593000",
          "160414.093000",
          "160416.593000",
          "160419.593000",
          "160422.093000",
          "160424.593000",
          "160427.093000",
          "160429.593000",
          "160432.593000",
          "160435.093000",
          "160437.593000",
          "160440.093000",
          "160442.593000",
          "160445.593000",
          "160448.093000",
          "160450.593000",
          "160453.093000",
          "160455.593000",
          "160458.593000",
          "160501.093000",
          "160503.593000",
          "160506.093000",
          "160508.593000",
          "160511.593000",
          "160514.093000",
          "160516.593000",
          "160519.093000",
          "160521.593000",
          "160524.593000",
          "160527.093000",
          "160529.593000",
          "160532.093000",
          "160534.593000",
          "160537.593000",
          "160540.093000",
          "160542.593000",
          "160545.093000",
          "160547.593000",
          "160550.593000",
          "160553.093000",
          "160555.609000",
          "160558.093000",
          "160600.593000",
          "160603.593000",
          "160606.093000",
          "160608.593000",
          "160611.093000",
          "160613.593000",
          "160616.593000",
          "160619.093000",
          "160621.593000",
          "160624.093000",
          "160626.593000",
          "160629.593000",
          "160632.093000",
          "160634.593000",
          "160637.093000",
          "160639.593000",
          "160642.593000",
          "160645.093000",
          "160647.593000",
          "160650.093000",
          "160652.593000",
          "160655.593000",
          "160658.093000",
          "160700.593000",
          "160703.093000",
          "160705.593000",
          "160708.593000",
          "160711.093000",
          "160713.593000",
          "160716.093000",
          "160718.593000",
          "160721.593000",
          "160724.093000",
          "160726.593000",
          "160729.093000",
          "160731.593000",
          "160734.593000",
          "160737.093000",
          "160739.593000",
          "160742.093000",
          "160744.593000",
          "160747.593000",
          "160750.093000",
          "160752.593000",
          "160755.093000",
          "160757.593000",
          "160800.593000",
          "160803.093000",
          "160805.593000",
          "160808.093000",
          "160810.593000",
          "160813.593000",
          "160816.093000",
          "160818.593000",
          "160821.093000",
          "160823.593000",
          "160826.593000",
          "160829.093000",
          "160831.593000",
          "160834.093000",
          "160836.593000",
          "160839.593000",
          "160842.093000",
          "160844.593000",
          "160847.093000",
          "160849.593000",
          "160852.593000",
          "160855.093000",
          "160857.593000",
          "160900.093000",
          "160902.593000",
          "160905.593000",
          "160908.093000",
          "160910.593000",
          "160913.093000",
          "160915.593000",
          "160918.593000",
          "160921.093000",
          "160923.593000",
          "160926.093000",
          "160928.593000",
          "160931.593000",
          "160934.093000",
          "160936.593000",
          "160939.093000",
          "160941.593000",
          "160944.593000",
          "160947.093000",
          "160949.593000",
          "160952.093000",
          "160954.593000",
          "160957.593000",
          "161000.093000",
          "161002.593000",
          "161005.093000",
          "161007.593000",
          "161010.593000",
          "161013.093000",
          "161015.593000",
          "161022.937000"
        ],
        "InstanceCreationTime": [
          "160355.609000",
          "160355.609000",
          "160356.593000",
          "160358.593000",
          "160401.093000",
          "160403.593000",
          "160406.593000",
          "160409.093000",
          "160411.593000",
          "160414.093000",
          "160416.593000",
          "160419.593000",
          "160422.093000",
          "160424.593000",
          "160427.093000",
          "160429.593000",
          "160432.593000",
          "160435.093000",
          "160437.593000",
          "160440.093000",
          "160442.593000",
          "160445.593000",
          "160448.093000",
          "160450.593000",
          "160453.093000",
          "160455.593000",
          "160458.593000",
          "160501.093000",
          "160503.593000",
          "160506.093000",
          "160508.593000",
          "160511.593000",
          "160514.093000",
          "160516.593000",
          "160519.093000",
          "160521.593000",
          "160524.593000",
          "160527.093000",
          "160529.593000",
          "160532.093000",
          "160534.593000",
          "160537.593000",
          "160540.093000",
          "160542.593000",
          "160545.093000",
          "160547.593000",
          "160550.593000",
          "160553.093000",
          "160555.609000",
          "160558.093000",
          "160600.593000",
          "160603.593000",
          "160606.093000",
          "160608.593000",
          "160611.093000",
          "160613.593000",
          "160616.593000",
          "160619.093000",
          "160621.593000",
          "160624.093000",
          "160626.593000",
          "160629.593000",
          "160632.093000",
          "160634.593000",
          "160637.093000",
          "160639.593000",
          "160642.593000",
          "160645.093000",
          "160647.593000",
          "160650.093000",
          "160652.593000",
          "160655.593000",
          "160658.093000",
          "160700.593000",
          "160703.093000",
          "160705.593000",
          "160708.593000",
          "160711.093000",
          "160713.593000",
          "160716.093000",
          "160718.593000",
          "160721.593000",
          "160724.093000",
          "160726.593000",
          "160729.093000",
          "160731.593000",
          "160734.593000",
          "160737.093000",
          "160739.593000",
          "160742.093000",
          "160744.593000",
          "160747.593000",
          "160750.093000",
          "160752.593000",
          "160755.093000",
          "160757.593000",
          "160800.593000",
          "160803.093000",
          "160805.593000",
          "160808.093000",
          "160810.593000",
          "160813.593000",
          "160816.093000",
          "160818.593000",
          "160821.093000",
          "160823.593000",
          "160826.593000",
          "160829.093000",
          "160831.593000",
          "160834.093000",
          "160836.593000",
          "160839.593000",
          "160842.093000",
          "160844.593000",
          "160847.093000",
          "160849.593000",
          "160852.593000",
          "160855.093000",
          "160857.593000",
          "160900.093000",
          "160902.593000",
          "160905.593000",
          "160908.093000",
          "160910.593000",
          "160913.093000",
          "160915.593000",
          "160918.593000",
          "160921.093000",
          "160923.593000",
          "160926.093000",
          "160928.593000",
          "160931.593000",
          "160934.093000",
          "160936.593000",
          "160939.093000",
          "160941.593000",
          "160944.593000",
          "160947.093000",
          "160949.593000",
          "160952.093000",
          "160954.593000",
          "160957.593000",
          "161000.093000",
          "161002.593000",
          "161005.093000",
          "161007.593000",
          "161010.593000",
          "161013.093000",
          "161015.593000",
          "161022.937000"
        ],
        "InstanceNumber": [
          1,
          2,
          3,
          4,
          5,
          6,
          7,
          8,
          9,
          10,
          11,
          12,
          13,
          14,
          15,
          16,
          17,
          18,
          19,
          20,
          21,
          22,
          23,
          24,
          25,
          26,
          27,
          28,
          29,
          30,
          31,
          32,
          33,
          34,
          35,
          36,
          37,
          38,
          39,
          40,
          41,
          42,
          43,
          44,
          45,
          46,
          47,
          48,
          49,
          50,
          51,
          52,
          53,
          54,
          55,
          56,
          57,
          58,
          59,
          60,
          61,
          62,
          63,
          64,
          65,
          66,
          67,
          68,
          69,
          70,
          71,
          72,
          73,
          74,
          75,
          76,
          77,
          78,
          79,
          80,
          81,
          82,
          83,
          84,
          85,
          86,
          87,
          88,
          89,
          90,
          91,
          92,
          93,
          94,
          95,
          96,
          97,
          98,
          99,
          100,
          101,
          102,
          103,
          104,
          105,
          106,
          107,
          108,
          109,
          110,
          111,
          112,
          113,
          114,
          115,
          116,
          117,
          118,
          119,
          120,
          121,
          122,
          123,
          124,
          125,
          126,
          127,
          128,
          129,
          130,
          131,
          132,
          133,
          134,
          135,
          136,
          137,
          138,
          139,
          140,
          141,
          142,
          143,
          144,
          145,
          146,
          147,
          148,
          149,
          150
        ],
        "WindowCenter": [
          870.0,
          869.0,
          871.0,
          870.0,
          869.0,
          868.0,
          869.0,
          870.0,
          869.0,
          869.0,
          869.0,
          870.0,
          869.0,
          868.0,
          868.0,
          868.0,
          869.0,
          868.0,
          868.0,
          869.0,
          869.0,
          868.0,
          868.0,
          868.0,
          869.0,
          870.0,
          870.0,
          869.0,
          869.0,
          869.0,
          870.0,
          869.0,
          867.0,
          866.0,
          868.0,
          869.0,
          869.0,
          868.0,
          869.0,
          870.0,
          869.0,
          868.0,
          868.0,
          870.0,
          870.0,
          869.0,
          872.0,
          871.0,
          869.0,
          869.0,
          869.0,
          870.0,
          870.0,
          870.0,
          869.0,
          870.0,
          870.0,
          870.0,
          870.0,
          869.0,
          870.0,
          870.0,
          869.0,
          869.0,
          869.0,
          870.0,
          870.0,
          869.0,
          869.0,
          870.0,
          870.0,
          870.0,
          870.0,
          870.0,
          869.0,
          869.0,
          870.0,
          869.0,
          870.0,
          869.0,
          869.0,
          870.0,
          870.0,
          869.0,
          870.0,
          871.0,
          870.0,
          869.0,
          869.0,
          870.0,
          870.0,
          870.0,
          870.0,
          871.0,
          872.0,
          870.0,
          872.0,
          871.0,
          870.0,
          870.0,
          870.0,
          870.0,
          870.0,
          869.0,
          870.0,
          871.0,
          870.0,
          869.0,
          870.0,
          870.0,
          869.0,
          869.0,
          871.0,
          871.0,
          870.0,
          870.0,
          872.0,
          872.0,
          871.0,
          869.0,
          871.0,
          872.0,
          871.0,
          869.0,
          870.0,
          870.0,
          871.0,
          871.0,
          871.0,
          871.0,
          871.0,
          871.0,
          870.0,
          870.0,
          871.0,
          871.0,
          872.0,
          871.0,
          871.0,
          871.0,
          871.0,
          870.0,
          870.0,
          871.0,
          872.0,
          871.0,
          870.0,
          870.0,
          871.0,
          870.0
        ],
        "WindowWidth": [
          2037.0,
          2035.0,
          2041.0,
          2039.0,
          2033.0,
          2032.0,
          2035.0,
          2037.0,
          2034.0,
          2036.0,
          2036.0,
          2037.0,
          2034.0,
          2032.0,
          2032.0,
          2032.0,
          2033.0,
          2032.0,
          2033.0,
          2034.0,
          2035.0,
          2031.0,
          2031.0,
          2032.0,
          2035.0,
          2038.0,
          2039.0,
          2033.0,
          2033.0,
          2036.0,
          2040.0,
          2033.0,
          2027.0,
          2025.0,
          2030.0,
          2035.0,
          2034.0,
          2034.0,
          2036.0,
          2041.0,
          2034.0,
          2031.0,
          2031.0,
          2038.0,
          2040.0,
          2035.0,
          2046.0,
          2041.0,
          2034.0,
          2035.0,
          2036.0,
          2038.0,
          2041.0,
          2042.0,
          2036.0,
          2039.0,
          2040.0,
          2038.0,
          2038.0,
          2035.0,
          2039.0,
          2039.0,
          2034.0,
          2035.0,
          2037.0,
          2038.0,
          2039.0,
          2036.0,
          2034.0,
          2037.0,
          2036.0,
          2037.0,
          2037.0,
          2038.0,
          2035.0,
          2035.0,
          2038.0,
          2036.0,
          2038.0,
          2035.0,
          2033.0,
          2039.0,
          2038.0,
          2034.0,
          2037.0,
          2043.0,
          2037.0,
          2032.0,
          2033.0,
          2036.0,
          2038.0,
          2040.0,
          2037.0,
          2042.0,
          2045.0,
          2038.0,
          2046.0,
          2041.0,
          2039.0,
          2037.0,
          2037.0,
          2037.0,
          2037.0,
          2035.0,
          2039.0,
          2040.0,
          2035.0,
          2034.0,
          2036.0,
          2038.0,
          2035.0,
          2034.0,
          2041.0,
          2040.0,
          2038.0,
          2037.0,
          2047.0,
          2045.0,
          2039.0,
          2033.0,
          2042.0,
          2045.0,
          2041.0,
          2035.0,
          2035.0,
          2038.0,
          2042.0,
          2039.0,
          2039.0,
          2040.0,
          2041.0,
          2039.0,
          2037.0,
          2037.0,
          2040.0,
          2041.0,
          2044.0,
          2042.0,
          2040.0,
          2042.0,
          2041.0,
          2037.0,
          2037.0,
          2040.0,
          2043.0,
          2041.0,
          2036.0,
          2039.0,
          2040.0,
          2037.0
        ]
      },
      "slices": {}
    }
  },
  "dummy_trs": 0,
  "dvars_nstd": 75.18444767885903,
  "dvars_std": 1.0913894944295306,
  "dvars_vstd": 1.008232570805369,
  "efc": 0.5447635763869171,
  "fber": 444.7784729003906,
  "fd_mean": 0.10671038581527782,
  "fd_num": 7,
  "fd_perc": 4.666666666666667,
  "fwhm_avg": 2.928138511774526,
  "fwhm_x": 2.8255759922356654,
  "fwhm_y": 2.823221429232423,
  "fwhm_z": 3.1356181138554895,
  "gcor": 0.00212264,
  "gsr_x": -0.013152247294783592,
  "gsr_y": 0.0554187074303627,
  "provenance": {
    "md5sum": "f813ab474f5ca341f3d1ad2672fd9bfa",
    "settings": {
      "fd_thres": 0.2,
      "testing": false
    },
    "software": "mriqc",
    "version": "22.0.0rc1",
    "webapi_port": null,
    "webapi_url": "https://mriqc.nimh.nih.gov/api/v1"
  },
  "size_t": 150,
  "size_x": 188,
  "size_y": 188,
  "size_z": 46,
  "snr": 2.3089535329021325,
  "spacing_tr": 2.5999999046325684,
  "spacing_x": 1.0957447290420532,
  "spacing_y": 1.0957447290420532,
  "spacing_z": 1.100000023841858,
  "summary_bg_k": 52.77616701478786,
  "summary_bg_mad": 22.78265710739802,
  "summary_bg_mean": 78.76190948486328,
  "summary_bg_median": 47.31333541870117,
  "summary_bg_n": 1085269.0,
  "summary_bg_p05": 30.353334426879883,
  "summary_bg_p95": 224.77334594726562,
