{
  "aor": 0.0006343333333333332,
  "aqi": 0.013303012666666666,
  "bids_meta": {
    "AcquisitionMatrixPE": 188,
    "AcquisitionNumber": 1,
    "AcquisitionTime": "16:26:37.332500",
    "BandwidthPerPixelPhaseEncode": 19.46,
    "BaseResolution": 188,
    "CogAtlasID": "TODO",
    "ConversionSoftware": "dcm2niix",
    "ConversionSoftwareVersion": "v1.0.20180606 GCC4.8.5",
    "DelayTime": 1.2,
    "DerivedVendorReportedEchoSpacing": 0.000820013,
    "DeviceSerialNumber": "18930",
    "DwellTime": 1.9e-06,
    "EchoTime": 0.02,
    "EffectiveEchoSpacing": 0.000273338,
    "FlipAngle": 80,
    "ImageComments": "Unaliased_MB2_PE2",
    "ImageOrientationPatientDICOM": [
      0.998559,
      0.0512351,
      0.0159773,
      0.00912013,
      0.131378,
      -0.99129
    ],
    "ImageType": [
      "ORIGINAL",
      "PRIMARY",
      "M",
      "MB",
      "ND",
      "MOSAIC"
    ],
    "InPlanePhaseEncodingDirectionDICOM": "COL",
    "InstitutionAddress": "Oxfordlaan_55_Maastricht_753AAF_Limburg_NL_6229_EV",
    "InstitutionName": "Scannexus",
    "InstitutionalDepartmentName": "MRI_7T",
    "MRAcquisitionType": "2D",
    "MagneticFieldStrength": 6.98,
    "Manufacturer": "Siemens",
    "ManufacturersModelName": "Investigational_Device_7T",
    "Modality": "MR",
    "MultibandAccelerationFactor": 2,
    "ParallelReductionFactorInPlane": 3,
    "PartialFourier": 0.75,
    "PatientPosition": "HFS",
    "PercentPhaseFOV": 100,
    "PhaseEncodingDirection": "j",
    "PhaseEncodingSteps": 141,
    "PhaseResolution": 1,
    "PixelBandwidth": 1400,
    "ProcedureStepDescription": "FeDem_Faruk",
    "ProtocolName": "cmrr_mbep2d_bold_AP_run10",
    "PulseSequenceDetails": "%CustomerSeq%_cmrr_mbep2d_bold",
    "ReceiveCoilName": "32Ch_Head_7T",
    "ReconMatrixPE": 188,
    "RepetitionTime": 2.6,
    "SAR": 0.0579586,
    "ScanOptions": "PFP_FS",
    "ScanningSequence": "EP",
    "SequenceName": "epfid2d1_188",
    "SequenceVariant": "SK_SS",
    "SeriesDescription": "cmrr_mbep2d_bold_AP_run10",
    "SeriesNumber": 23,
    "ShimSetting": [
      100,
      -69,
      465,
      394,
      -246,
      272,
      386,
      86
    ],
    "SliceThickness": 1.1,
    "SliceTiming": [
      0,
      0.7325,
      0.06,
      0.7925,
      0.1225,
      0.855,
      0.1825,
      0.915,
      0.2425,
      0.9775,
      0.305,
      1.0375,
      0.365,
      1.1,
      0.4275,
      1.16,
      0.4875,
      1.2225,
      0.55,
      1.2825,
      0.61,
      1.3425,
      0.6725,
      0,
      0.7325,
      0.06,
      0.7925,
      0.1225,
      0.855,
      0.1825,
      0.915,
      0.2425,
      0.9775,
      0.305,
      1.0375,
      0.365,
      1.1,
      0.4275,
      1.16,
      0.4875,
      1.2225,
      0.55,
      1.2825,
      0.61,
      1.3425,
      0.6725
    ],
    "SoftwareVersions": "syngo_MR_B17",
    "SpacingBetweenSlices": 1.1,
    "StationName": "MRC18930",
    "TaskName": "auditory",
    "TotalReadoutTime": 0.0511141,
    "TxRefAmp": 195,
    "dataset": "ds001942",
    "dcmmeta_affine": [
      [
        -1.094165563583374,
        0.009993336163461208,
        0.05817669257521629,
        101.1329345703125
      ],
      [
        -0.05614057183265686,
        0.14395633339881897,
        -1.0890082120895386,
        32.92335510253906
      ],
      [
        0.017507025972008705,
        1.0862013101577759,
        0.14379310607910156,
        -111.92818450927734
      ],
      [
        0.0,
        0.0,
        0.0,
        1.0
      ]
    ],
    "dcmmeta_reorient_transform": [
      [
        0.0,
        -1.0,
        0.0,
        187.0
      ],
      [
        1.0,
        0.0,
        0.0,
        0.0
      ],
      [
        0.0,
        0.0,
        1.0,
        0.0
      ],
      [
        0.0,
        0.0,
        0.0,
        1.0
      ]
    ],
    "dcmmeta_shape": [
      188,
      188,
      46,
      150
    ],
    "dcmmeta_slice_dim": 2,
    "dcmmeta_version": 0.6,
    "global": {
      "const": {
        "AcquisitionMatrix": [
          188,
          0,
          0,
          188
        ],
        "AngioFlag": "N",
        "BitsAllocated": 16,
        "BitsStored": 12,
        "Columns": 1316,
        "EchoNumbers": 1,
        "EchoTime": 20.0,
        "EchoTrainLength": 1,
        "FlipAngle": 80.0,
        "HighBit": 11,
        "ImageOrientationPatient": [
          0.99855880789424,
          0.05123508108882,
          0.01597728520941,
          0.00912013137267,
          0.13137761291988,
          -0.991290444838
        ],
        "ImagePositionPatient": [
          -725.74730394333,
          -172.69783867623,
          693.93501472834
        ],
        "ImageType": [
          "ORIGINAL",
          "PRIMARY",
          "M",
          "MB",
          "ND",
          "MOSAIC"
        ],
        "ImagedNucleus": "1H",
        "ImagingFrequency": 297.20556,
        "InPlanePhaseEncodingDirection": "COL",
        "LargestImagePixelValue": 4095,
        "MRAcquisitionType": "2D",
        "MagneticFieldStrength": 6.98,
        "Manufacturer": "SIEMENS",
        "ManufacturerModelName": "Investigational_Device_7T",
        "Modality": "MR",
        "NumberOfAverages": 1.0,
        "NumberOfPhaseEncodingSteps": 141,
        "PercentPhaseFieldOfView": 100.0,
        "PercentSampling": 100.0,
        "PerformedProcedureStepStartTime": "145017.984000",
        "PhotometricInterpretation": "MONOCHROME2",
        "PixelBandwidth": 1400.0,
        "PixelRepresentation": 0,
        "PixelSpacing": [
          1.0957447290421,
          1.0957447290421
        ],
        "ProtocolName": "cmrr_mbep2d_bold_AP_run10",
        "RepetitionTime": 2600.0,
        "Rows": 1316,
        "SAR": 0.05795861188989,
        "SamplesPerPixel": 1,
        "ScanOptions": [
          "PFP",
          "FS"
        ],
        "ScanningSequence": "EP",
        "SequenceName": "epfid2d1_188",
        "SequenceVariant": [
          "SK",
          "SS"
        ],
        "SeriesDescription": "cmrr_mbep2d_bold_AP_run10",
        "SeriesNumber": 23,
        "SeriesTime": "162646.593000",
        "SliceLocation": -41.877024908674,
        "SliceThickness": 1.1000000238419,
        "SmallestImagePixelValue": 0,
        "SoftwareVersions": "syngo MR B17",
        "SpacingBetweenSlices": 1.0999999933357,
        "SpecificCharacterSet": "ISO_IR 100",
        "StudyID": "1",
        "StudyTime": "145017.921000",
        "TransmitCoilName": "32Ch_Head_7T",
        "VariableFlipAngleFlag": "N",
        "WindowCenterWidthExplanation": "Algo1",
        "dBdt": 0.0
      },
      "slices": {}
    },
    "modality": "bold",
    "run_id": 10,
    "session_id": "SES03",
    "subject_id": "S03",
    "task_id": "auditory",
    "time": {
      "samples": {
        "AcquisitionNumber": [
          1,
          2,
          3,
          4,
          5,
          6,
          7,
          8,
          9,
          10,
          11,
          12,
          13,
          14,
          15,
          16,
          17,
          18,
          19,
          20,
          21,
          22,
          23,
          24,
          25,
          26,
          27,
          28,
          29,
          30,
          31,
          32,
          33,
          34,
          35,
          36,
          37,
          38,
          39,
          40,
          41,
          42,
          43,
          44,
          45,
          46,
          47,
          48,
          49,
          50,
          51,
          52,
          53,
          54,
          55,
          56,
          57,
          58,
          59,
          60,
          61,
          62,
          63,
          64,
          65,
          66,
          67,
          68,
          69,
          70,
          71,
          72,
          73,
          74,
          75,
          76,
          77,
          78,
          79,
          80,
          81,
          82,
          83,
          84,
          85,
          86,
          87,
          88,
          89,
          90,
          91,
          92,
          93,
          94,
          95,
          96,
          97,
          98,
          99,
          100,
          101,
          102,
          103,
          104,
          105,
          106,
          107,
          108,
          109,
          110,
          111,
          112,
          113,
          114,
          115,
          116,
          117,
          118,
          119,
          120,
          121,
          122,
          123,
          124,
          125,
          126,
          127,
          128,
          129,
          130,
          131,
          132,
          133,
          134,
          135,
          136,
          137,
          138,
          139,
          140,
          141,
          142,
          143,
          144,
          145,
          146,
          147,
          148,
          149,
          150
        ],
        "AcquisitionTime": [
          "162637.332500",
          "162639.942500",
          "162642.552500",
          "162645.162500",
          "162647.772500",
          "162650.385000",
          "162652.995000",
          "162655.605000",
          "162658.215000",
          "162700.825000",
          "162703.435000",
          "162706.047500",
          "162708.657500",
          "162711.267500",
          "162713.877500",
          "162716.487500",
          "162719.100000",
          "162721.710000",
          "162724.320000",
          "162726.930000",
          "162729.540000",
          "162732.150000",
          "162734.762500",
          "162737.372500",
          "162739.982500",
          "162742.592500",
          "162745.202500",
          "162747.812500",
          "162750.425000",
          "162753.035000",
          "162755.645000",
          "162758.255000",
          "162800.865000",
          "162803.477500",
          "162806.087500",
          "162808.697500",
          "162811.307500",
          "162813.917500",
          "162816.527500",
          "162819.140000",
          "162821.750000",
          "162824.360000",
          "162826.970000",
          "162829.580000",
          "162832.190000",
          "162834.802500",
          "162837.412500",
          "162840.022500",
          "162842.632500",
          "162845.242500",
          "162847.855000",
          "162850.465000",
          "162853.075000",
          "162855.685000",
          "162858.295000",
          "162900.905000",
          "162903.517500",
          "162906.127500",
          "162908.737500",
          "162911.347500",
          "162913.957500",
          "162916.567500",
          "162919.180000",
          "162921.790000",
          "162924.400000",
          "162927.010000",
          "162929.620000",
          "162932.232500",
          "162934.842500",
          "162937.452500",
          "162940.062500",
          "162942.672500",
          "162945.282500",
          "162947.895000",
          "162950.505000",
          "162953.115000",
          "162955.725000",
          "162958.335000",
          "163000.945000",
          "163003.557500",
          "163006.167500",
          "163008.777500",
          "163011.387500",
          "163013.997500",
          "163016.610000",
          "163019.220000",
          "163021.830000",
          "163024.440000",
          "163027.050000",
          "163029.660000",
          "163032.272500",
          "163034.882500",
          "163037.492500",
          "163040.102500",
          "163042.712500",
          "163045.322500",
          "163047.935000",
          "163050.545000",
          "163053.155000",
          "163055.765000",
          "163058.375000",
          "163100.987500",
          "163103.597500",
          "163106.207500",
          "163108.817500",
          "163111.427500",
          "163114.037500",
          "163116.650000",
          "163119.260000",
          "163121.870000",
          "163124.480000",
          "163127.090000",
          "163129.700000",
          "163132.312500",
          "163134.922500",
          "163137.532500",
          "163140.142500",
          "163142.752500",
          "163145.365000",
          "163147.975000",
          "163150.585000",
          "163153.195000",
          "163155.805000",
          "163158.415000",
          "163201.027500",
          "163203.637500",
          "163206.247500",
          "163208.857500",
          "163211.467500",
          "163214.077500",
          "163216.690000",
          "163219.300000",
          "163221.910000",
          "163224.520000",
          "163227.130000",
          "163229.742500",
          "163232.352500",
          "163234.962500",
          "163237.572500",
          "163240.182500",
          "163242.792500",
          "163245.405000",
          "163248.015000",
          "163250.625000",
          "163253.235000",
          "163255.845000",
          "163258.455000",
          "163301.067500",
          "163303.677500",
          "163306.287500"
        ],
        "ContentTime": [
          "162646.593000",
          "162647.093000",
          "162647.593000",
          "162649.593000",
          "162652.093000",
          "162655.093000",
          "162657.593000",
          "162700.093000",
          "162702.593000",
          "162705.093000",
          "162708.093000",
          "162710.593000",
          "162713.093000",
          "162715.593000",
          "162718.093000",
          "162721.093000",
          "162723.593000",
          "162726.093000",
          "162728.593000",
          "162731.093000",
          "162734.093000",
          "162736.593000",
          "162739.093000",
          "162741.593000",
          "162744.093000",
          "162747.093000",
          "162749.593000",
          "162752.093000",
          "162754.593000",
          "162757.093000",
          "162800.093000",
          "162802.593000",
          "162805.093000",
          "162807.593000",
          "162810.093000",
          "162813.093000",
          "162815.593000",
          "162818.093000",
          "162820.593000",
          "162823.093000",
          "162826.093000",
          "162828.593000",
          "162831.093000",
          "162833.593000",
          "162836.093000",
          "162839.093000",
          "162841.593000",
          "162844.093000",
          "162846.593000",
          "162849.093000",
          "162852.093000",
          "162854.593000",
          "162857.093000",
          "162859.593000",
          "162902.093000",
          "162905.093000",
          "162907.593000",
          "162910.093000",
          "162912.593000",
          "162915.093000",
          "162918.093000",
          "162920.593000",
          "162923.093000",
          "162925.593000",
          "162928.093000",
          "162931.093000",
          "162933.593000",
          "162936.093000",
          "162938.593000",
          "162941.093000",
          "162944.093000",
          "162946.593000",
          "162949.093000",
          "162951.593000",
          "162954.093000",
          "162957.093000",
          "162959.593000",
          "163002.093000",
          "163004.593000",
          "163007.093000",
          "163010.093000",
          "163012.593000",
          "163015.093000",
          "163017.593000",
          "163020.093000",
          "163023.093000",
          "163025.593000",
          "163028.093000",
          "163030.593000",
          "163033.093000",
          "163036.093000",
          "163038.593000",
          "163041.093000",
          "163043.593000",
          "163046.093000",
          "163049.093000",
          "163051.593000",
          "163054.093000",
          "163056.593000",
          "163059.093000",
          "163102.093000",
          "163104.593000",
          "163107.093000",
          "163109.593000",
          "163112.093000",
          "163115.093000",
          "163117.593000",
          "163120.093000",
          "163122.593000",
          "163125.093000",
          "163128.093000",
          "163130.593000",
          "163133.093000",
          "163135.593000",
          "163138.093000",
          "163141.093000",
          "163143.593000",
          "163146.093000",
          "163148.593000",
          "163151.093000",
          "163154.093000",
          "163156.593000",
          "163159.093000",
          "163201.593000",
          "163204.093000",
          "163207.093000",
          "163209.593000",
          "163212.093000",
          "163214.593000",
          "163217.093000",
          "163220.093000",
          "163222.593000",
          "163225.093000",
          "163227.593000",
          "163230.093000",
          "163233.093000",
          "163235.593000",
          "163238.093000",
          "163240.593000",
          "163243.093000",
          "163246.093000",
          "163248.593000",
          "163251.093000",
          "163253.593000",
          "163256.093000",
          "163259.093000",
          "163301.593000",
          "163304.093000",
          "163306.593000",
          "163314.015000"
        ],
        "InstanceCreationTime": [
          "162646.593000",
          "162647.093000",
          "162647.593000",
          "162649.593000",
          "162652.093000",
          "162655.093000",
          "162657.593000",
          "162700.093000",
          "162702.593000",
          "162705.093000",
          "162708.093000",
          "162710.593000",
          "162713.093000",
          "162715.593000",
          "162718.093000",
          "162721.093000",
          "162723.593000",
          "162726.093000",
          "162728.593000",
          "162731.093000",
          "162734.093000",
          "162736.593000",
          "162739.093000",
          "162741.593000",
          "162744.093000",
          "162747.093000",
          "162749.593000",
          "162752.093000",
          "162754.593000",
          "162757.093000",
          "162800.093000",
          "162802.593000",
          "162805.093000",
          "162807.593000",
          "162810.093000",
          "162813.093000",
          "162815.593000",
          "162818.093000",
          "162820.593000",
          "162823.093000",
          "162826.093000",
          "162828.593000",
          "162831.093000",
          "162833.593000",
          "162836.093000",
          "162839.093000",
          "162841.593000",
          "162844.093000",
          "162846.593000",
          "162849.093000",
          "162852.093000",
          "162854.593000",
          "162857.093000",
          "162859.593000",
          "162902.093000",
          "162905.093000",
          "162907.593000",
          "162910.093000",
          "162912.593000",
          "162915.093000",
          "162918.093000",
          "162920.593000",
          "162923.093000",
          "162925.593000",
          "162928.093000",
          "162931.093000",
          "162933.593000",
          "162936.093000",
          "162938.593000",
          "162941.093000",
          "162944.093000",
          "162946.593000",
          "162949.093000",
          "162951.593000",
          "162954.093000",
          "162957.093000",
          "162959.593000",
          "163002.093000",
          "163004.593000",
          "163007.093000",
          "163010.093000",
          "163012.593000",
          "163015.093000",
          "163017.593000",
          "163020.093000",
          "163023.093000",
          "163025.593000",
          "163028.093000",
          "163030.593000",
          "163033.093000",
          "163036.093000",
          "163038.593000",
          "163041.093000",
          "163043.593000",
          "163046.093000",
          "163049.093000",
          "163051.593000",
          "163054.093000",
          "163056.593000",
          "163059.093000",
          "163102.093000",
          "163104.593000",
          "163107.093000",
          "163109.593000",
          "163112.093000",
          "163115.093000",
          "163117.593000",
          "163120.093000",
          "163122.593000",
          "163125.093000",
          "163128.093000",
          "163130.593000",
          "163133.093000",
          "163135.593000",
          "163138.093000",
          "163141.093000",
          "163143.593000",
          "163146.093000",
          "163148.593000",
          "163151.093000",
          "163154.093000",
          "163156.593000",
          "163159.093000",
          "163201.593000",
          "163204.093000",
          "163207.093000",
          "163209.593000",
          "163212.093000",
          "163214.593000",
          "163217.093000",
          "163220.093000",
          "163222.593000",
          "163225.093000",
          "163227.593000",
          "163230.093000",
          "163233.093000",
          "163235.593000",
          "163238.093000",
          "163240.593000",
          "163243.093000",
          "163246.093000",
          "163248.593000",
          "163251.093000",
          "163253.593000",
          "163256.093000",
          "163259.093000",
          "163301.593000",
          "163304.093000",
          "163306.593000",
          "163314.015000"
        ],
        "InstanceNumber": [
          1,
          2,
          3,
          4,
          5,
          6,
          7,
          8,
          9,
          10,
          11,
          12,
          13,
          14,
          15,
          16,
          17,
          18,
          19,
          20,
          21,
          22,
          23,
          24,
          25,
          26,
          27,
          28,
          29,
          30,
          31,
          32,
          33,
          34,
          35,
          36,
          37,
          38,
          39,
          40,
          41,
          42,
          43,
          44,
          45,
          46,
          47,
          48,
          49,
          50,
          51,
          52,
          53,
          54,
          55,
          56,
          57,
          58,
          59,
          60,
          61,
          62,
          63,
          64,
          65,
          66,
          67,
          68,
          69,
          70,
          71,
          72,
          73,
          74,
          75,
          76,
          77,
          78,
          79,
          80,
          81,
          82,
          83,
          84,
          85,
          86,
          87,
          88,
          89,
          90,
          91,
          92,
          93,
          94,
          95,
          96,
          97,
          98,
          99,
          100,
          101,
          102,
          103,
          104,
          105,
          106,
          107,
          108,
          109,
          110,
          111,
          112,
          113,
          114,
          115,
          116,
          117,
          118,
          119,
          120,
          121,
          122,
          123,
          124,
          125,
          126,
          127,
          128,
          129,
          130,
          131,
          132,
          133,
          134,
          135,
          136,
          137,
          138,
          139,
          140,
          141,
          142,
          143,
          144,
          145,
          146,
          147,
          148,
          149,
          150
        ],
        "WindowCenter": [
          870.0,
          869.0,
          869.0,
          868.0,
          868.0,
          869.0,
          869.0,
          869.0,
          870.0,
          872.0,
          868.0,
          866.0,
          868.0,
          870.0,
          869.0,
          868.0,
          868.0,
          870.0,
          868.0,
          867.0,
          867.0,
          868.0,
          868.0,
          867.0,
          866.0,
          866.0,
          868.0,
          868.0,
          868.0,
          868.0,
          868.0,
          870.0,
          869.0,
          868.0,
          868.0,
          869.0,
          870.0,
          869.0,
          869.0,
          869.0,
          868.0,
          869.0,
          870.0,
          870.0,
          869.0,
          869.0,
          870.0,
          869.0,
          868.0,
          868.0,
          869.0,
          870.0,
          869.0,
          869.0,
          868.0,
          869.0,
          868.0,
          869.0,
          869.0,
          870.0,
          870.0,
          870.0,
          870.0,
          870.0,
          869.0,
          869.0,
          869.0,
          870.0,
          869.0,
          870.0,
          870.0,
          871.0,
          869.0,
          870.0,
          870.0,
          869.0,
          868.0,
          868.0,
          868.0,
          869.0,
          869.0,
          868.0,
          869.0,
          870.0,
          870.0,
          870.0,
          870.0,
          871.0,
          871.0,
          869.0,
          869.0,
          871.0,
          871.0,
          870.0,
          869.0,
          870.0,
          871.0,
          870.0,
          870.0,
          871.0,
          871.0,
          872.0,
          872.0,
          869.0,
          868.0,
          871.0,
          871.0,
          870.0,
          870.0,
          872.0,
          872.0,
          870.0,
          869.0,
          869.0,
          871.0,
          871.0,
          870.0,
          872.0,
          870.0,
          868.0,
          869.0,
          870.0,
          869.0,
          869.0,
          870.0,
          871.0,
          870.0,
          870.0,
          871.0,
          872.0,
          871.0,
          872.0,
          872.0,
          872.0,
          871.0,
          871.0,
          871.0,
          872.0,
          873.0,
          872.0,
          871.0,
          871.0,
          869.0,
          870.0,
          872.0,
          872.0,
          871.0,
          872.0,
          872.0,
          871.0
        ],
        "WindowWidth": [
          2038.0,
          2036.0,
          2033.0,
          2029.0,
          2029.0,
          2032.0,
          2036.0,
          2037.0,
          2042.0,
          2045.0,
          2029.0,
          2025.0,
          2033.0,
          2038.0,
          2033.0,
          2029.0,
          2032.0,
          2037.0,
          2030.0,
          2026.0,
          2025.0,
          2030.0,
          2031.0,
          2026.0,
          2022.0,
          2022.0,
          2028.0,
          2030.0,
          2028.0,
          2027.0,
          2031.0,
          2035.0,
          2031.0,
          2029.0,
          2030.0,
          2033.0,
          2035.0,
          2032.0,
          2032.0,
          2032.0,
          2028.0,
          2031.0,
          2035.0,
          2035.0,
          2031.0,
          2032.0,
          2036.0,
          2031.0,
          2028.0,
          2030.0,
          2033.0,
          2036.0,
          2032.0,
          2031.0,
          2030.0,
          2032.0,
          2030.0,
          2032.0,
          2033.0,
          2035.0,
          2034.0,
          2034.0,
          2036.0,
          2037.0,
          2031.0,
          2031.0,
          2034.0,
          2037.0,
          2033.0,
          2035.0,
          2038.0,
          2038.0,
          2034.0,
          2036.0,
          2037.0,
          2033.0,
          2029.0,
          2030.0,
          2030.0,
          2032.0,
          2030.0,
          2029.0,
          2033.0,
          2034.0,
          2036.0,
          2035.0,
          2035.0,
          2038.0,
          2037.0,
          2032.0,
          2033.0,
          2040.0,
          2041.0,
          2035.0,
          2032.0,
          2037.0,
          2038.0,
          2036.0,
          2035.0,
          2038.0,
          2040.0,
          2045.0,
          2046.0,
          2031.0,
          2030.0,
          2041.0,
          2039.0,
          2034.0,
          2036.0,
          2041.0,
          2040.0,
          2035.0,
          2030.0,
          2032.0,
          2038.0,
          2036.0,
          2036.0,
          2044.0,
          2032.0,
          2027.0,
          2031.0,
          2035.0,
          2030.0,
          2031.0,
          2035.0,
          2037.0,
          2035.0,
          2033.0,
          2039.0,
          2042.0,
          2040.0,
          2042.0,
          2043.0,
          2045.0,
          2040.0,
          2037.0,
          2042.0,
          2045.0,
          2047.0,
          2044.0,
          2041.0,
          2039.0,
          2033.0,
          2035.0,
          2045.0,
          2042.0,
          2041.0,
          2045.0,
          2045.0,
          2038.0
        ]
      },
      "slices": {}
    }
  },
  "dummy_trs": 0,
  "dvars_nstd": 76.0825217843624,
  "dvars_std": 1.1084348929530206,
  "dvars_vstd": 1.0170517602013422,
  "efc": 0.5452460321580249,
  "fber": 443.64483642578125,
  "fd_mean": 0.09358111815697903,
  "fd_num": 4,
  "fd_perc": 2.6666666666666665,
  "fwhm_avg": 2.9108119986923437,
  "fwhm_x": 2.8039833718260883,
  "fwhm_y": 2.814852691736404,
  "fwhm_z": 3.113599932514539,
  "gcor": 0.00423546,
  "gsr_x": -0.012322093360126019,
  "gsr_y": 0.055868782103061676,
  "provenance": {
    "md5sum": "fa1461046b9b9be555099c5bb5023b8f",
    "settings": {
      "fd_thres": 0.2,
      "testing": false
    },
    "software": "mriqc",
    "version": "22.0.0rc1",
    "webapi_port": null,
    "webapi_url": "https://mriqc.nimh.nih.gov/api/v1"
  },
  "size_t": 150,
  "size_x": 188,
  "size_y": 188,
  "size_z": 46,
  "snr": 2.2943381838516026,
  "spacing_tr": 2.5999999046325684,
  "spacing_x": 1.0957447290420532,
  "spacing_y": 1.0957447290420532,
  "spacing_z": 1.100000023841858,
  "summary_bg_k": 53.846619224582305,
  "summary_bg_mad": 22.39717736340653,
  "summary_bg_mean": 79.57394409179688,
  "summary_bg_median": 47.253334045410156,
  "summary_bg_n": 1085574.0,
  "summary_bg_p05": 30.606666564941406,
