{
  "aor": 0.0005863999999999999,
  "aqi": 0.013483876666666669,
  "bids_meta": {
    "AcquisitionMatrixPE": 188,
    "AcquisitionNumber": 1,
    "AcquisitionTime": "15:46:1.172500",
    "BandwidthPerPixelPhaseEncode": 19.46,
    "BaseResolution": 188,
    "CogAtlasID": "TODO",
    "ConversionSoftware": "dcm2niix",
    "ConversionSoftwareVersion": "v1.0.20180606 GCC4.8.5",
    "DelayTime": 1.2,
    "DerivedVendorReportedEchoSpacing": 0.000820013,
    "DeviceSerialNumber": "18930",
    "DwellTime": 1.9e-06,
    "EchoTime": 0.02,
    "EffectiveEchoSpacing": 0.000273338,
    "FlipAngle": 80,
    "ImageComments": "Unaliased_MB2_PE2",
    "ImageOrientationPatientDICOM": [
      0.998559,
      0.0512351,
      0.0159773,
      0.00912013,
      0.131378,
      -0.99129
    ],
    "ImageType": [
      "ORIGINAL",
      "PRIMARY",
      "M",
      "MB",
      "ND",
      "MOSAIC"
    ],
    "InPlanePhaseEncodingDirectionDICOM": "COL",
    "InstitutionAddress": "Oxfordlaan_55_Maastricht_753AAF_Limburg_NL_6229_EV",
    "InstitutionName": "Scannexus",
    "InstitutionalDepartmentName": "MRI_7T",
    "MRAcquisitionType": "2D",
    "MagneticFieldStrength": 6.98,
    "Manufacturer": "Siemens",
    "ManufacturersModelName": "Investigational_Device_7T",
    "Modality": "MR",
    "MultibandAccelerationFactor": 2,
    "ParallelReductionFactorInPlane": 3,
    "PartialFourier": 0.75,
    "PatientPosition": "HFS",
    "PercentPhaseFOV": 100,
    "PhaseEncodingDirection": "j",
    "PhaseEncodingSteps": 141,
    "PhaseResolution": 1,
    "PixelBandwidth": 1400,
    "ProcedureStepDescription": "FeDem_Faruk",
    "ProtocolName": "cmrr_mbep2d_bold_AP_run5",
    "PulseSequenceDetails": "%CustomerSeq%_cmrr_mbep2d_bold",
    "ReceiveCoilName": "32Ch_Head_7T",
    "ReconMatrixPE": 188,
    "RepetitionTime": 2.6,
    "SAR": 0.058064,
    "ScanOptions": "PFP_FS",
    "ScanningSequence": "EP",
    "SequenceName": "epfid2d1_188",
    "SequenceVariant": "SK_SS",
    "SeriesDescription": "cmrr_mbep2d_bold_AP_run5",
    "SeriesNumber": 16,
    "ShimSetting": [
      100,
      -69,
      465,
      394,
      -246,
      272,
      386,
      86
    ],
    "SliceThickness": 1.1,
    "SliceTiming": [
      0,
      0.735,
      0.0625,
      0.795,
      0.1225,
      0.855,
      0.185,
      0.9175,
      0.245,
      0.9775,
      0.305,
      1.04,
      0.3675,
      1.1,
      0.4275,
      1.1625,
      0.49,
      1.2225,
      0.55,
      1.285,
      0.6125,
      1.345,
      0.6725,
      0,
      0.735,
      0.0625,
      0.795,
      0.1225,
      0.855,
      0.185,
      0.9175,
      0.245,
      0.9775,
      0.305,
      1.04,
      0.3675,
      1.1,
      0.4275,
      1.1625,
      0.49,
      1.2225,
      0.55,
      1.285,
      0.6125,
      1.345,
      0.6725
    ],
    "SoftwareVersions": "syngo_MR_B17",
    "SpacingBetweenSlices": 1.1,
    "StationName": "MRC18930",
    "TaskName": "auditory",
    "TotalReadoutTime": 0.0511141,
    "TxRefAmp": 195,
    "dataset": "ds001942",
    "dcmmeta_affine": [
      [
        -1.094165563583374,
        0.009993336163461208,
        0.05817669257521629,
        101.1329345703125
      ],
      [
        -0.05614057183265686,
        0.14395633339881897,
        -1.0890082120895386,
        32.92335510253906
      ],
      [
        0.017507025972008705,
        1.0862013101577759,
        0.14379310607910156,
        -111.92818450927734
      ],
      [
        0.0,
        0.0,
        0.0,
        1.0
      ]
    ],
    "dcmmeta_reorient_transform": [
      [
        0.0,
        -1.0,
        0.0,
        187.0
      ],
      [
        1.0,
        0.0,
        0.0,
        0.0
      ],
      [
        0.0,
        0.0,
        1.0,
        0.0
      ],
      [
        0.0,
        0.0,
        0.0,
        1.0
      ]
    ],
    "dcmmeta_shape": [
      188,
      188,
      46,
      150
    ],
    "dcmmeta_slice_dim": 2,
    "dcmmeta_version": 0.6,
    "global": {
      "const": {
        "AcquisitionMatrix": [
          188,
          0,
          0,
          188
        ],
        "AngioFlag": "N",
        "BitsAllocated": 16,
        "BitsStored": 12,
        "Columns": 1316,
        "EchoNumbers": 1,
        "EchoTime": 20.0,
        "EchoTrainLength": 1,
        "FlipAngle": 80.0,
        "HighBit": 11,
        "ImageOrientationPatient": [
          0.99855880789424,
          0.05123508108882,
          0.01597728520941,
          0.00912013137267,
          0.13137761291988,
          -0.991290444838
        ],
        "ImagePositionPatient": [
          -725.74730394333,
          -172.69783867623,
          693.93501472834
        ],
        "ImageType": [
          "ORIGINAL",
          "PRIMARY",
          "M",
          "MB",
          "ND",
          "MOSAIC"
        ],
        "ImagedNucleus": "1H",
        "ImagingFrequency": 297.205546,
        "InPlanePhaseEncodingDirection": "COL",
        "LargestImagePixelValue": 4095,
        "MRAcquisitionType": "2D",
        "MagneticFieldStrength": 6.98,
        "Manufacturer": "SIEMENS",
        "ManufacturerModelName": "Investigational_Device_7T",
        "Modality": "MR",
        "NumberOfAverages": 1.0,
        "NumberOfPhaseEncodingSteps": 141,
        "PercentPhaseFieldOfView": 100.0,
        "PercentSampling": 100.0,
        "PerformedProcedureStepStartTime": "145017.984000",
        "PhotometricInterpretation": "MONOCHROME2",
        "PixelBandwidth": 1400.0,
        "PixelRepresentation": 0,
        "PixelSpacing": [
          1.0957447290421,
          1.0957447290421
        ],
        "ProtocolName": "cmrr_mbep2d_bold_AP_run5",
        "RepetitionTime": 2600.0,
        "Rows": 1316,
        "SAR": 0.05806396604269,
        "SamplesPerPixel": 1,
        "ScanOptions": [
          "PFP",
          "FS"
        ],
        "ScanningSequence": "EP",
        "SequenceName": "epfid2d1_188",
        "SequenceVariant": [
          "SK",
          "SS"
        ],
        "SeriesDescription": "cmrr_mbep2d_bold_AP_run5",
        "SeriesNumber": 16,
        "SeriesTime": "154609.921000",
        "SliceLocation": -41.877024908674,
        "SliceThickness": 1.1000000238419,
        "SmallestImagePixelValue": 0,
        "SoftwareVersions": "syngo MR B17",
        "SpacingBetweenSlices": 1.0999999933357,
        "SpecificCharacterSet": "ISO_IR 100",
        "StudyID": "1",
        "StudyTime": "145017.921000",
        "TransmitCoilName": "32Ch_Head_7T",
        "VariableFlipAngleFlag": "N",
        "WindowCenterWidthExplanation": "Algo1",
        "dBdt": 0.0
      },
      "slices": {}
    },
    "modality": "bold",
    "run_id": 5,
    "session_id": "SES03",
    "subject_id": "S03",
    "task_id": "auditory",
    "time": {
      "samples": {
        "AcquisitionNumber": [
          1,
          2,
          3,
          4,
          5,
          6,
          7,
          8,
          9,
          10,
          11,
          12,
          13,
          14,
          15,
          16,
          17,
          18,
          19,
          20,
          21,
          22,
          23,
          24,
          25,
          26,
          27,
          28,
          29,
          30,
          31,
          32,
          33,
          34,
          35,
          36,
          37,
          38,
          39,
          40,
          41,
          42,
          43,
          44,
          45,
          46,
          47,
          48,
          49,
          50,
          51,
          52,
          53,
          54,
          55,
          56,
          57,
          58,
          59,
          60,
          61,
          62,
          63,
          64,
          65,
          66,
          67,
          68,
          69,
          70,
          71,
          72,
          73,
          74,
          75,
          76,
          77,
          78,
          79,
          80,
          81,
          82,
          83,
          84,
          85,
          86,
          87,
          88,
          89,
          90,
          91,
          92,
          93,
          94,
          95,
          96,
          97,
          98,
          99,
          100,
          101,
          102,
          103,
          104,
          105,
          106,
          107,
          108,
          109,
          110,
          111,
          112,
          113,
          114,
          115,
          116,
          117,
          118,
          119,
          120,
          121,
          122,
          123,
          124,
          125,
          126,
          127,
          128,
          129,
          130,
          131,
          132,
          133,
          134,
          135,
          136,
          137,
          138,
          139,
          140,
          141,
          142,
          143,
          144,
          145,
          146,
          147,
          148,
          149,
          150
        ],
        "AcquisitionTime": [
          "154601.172500",
          "154603.782500",
          "154606.395000",
          "154609.005000",
          "154611.615000",
          "154614.225000",
          "154616.835000",
          "154619.445000",
          "154622.057500",
          "154624.667500",
          "154627.277500",
          "154629.887500",
          "154632.497500",
          "154635.110000",
          "154637.720000",
          "154640.330000",
          "154642.940000",
          "154645.550000",
          "154648.160000",
          "154650.772500",
          "154653.382500",
          "154655.992500",
          "154658.602500",
          "154701.212500",
          "154703.822500",
          "154706.435000",
          "154709.045000",
          "154711.655000",
          "154714.265000",
          "154716.875000",
          "154719.487500",
          "154722.097500",
          "154724.707500",
          "154727.317500",
          "154729.927500",
          "154732.537500",
          "154735.150000",
          "154737.760000",
          "154740.370000",
          "154742.980000",
          "154745.590000",
          "154748.200000",
          "154750.812500",
          "154753.422500",
          "154756.032500",
          "154758.642500",
          "154801.252500",
          "154803.865000",
          "154806.475000",
          "154809.085000",
          "154811.695000",
          "154814.305000",
          "154816.915000",
          "154819.527500",
          "154822.137500",
          "154824.747500",
          "154827.357500",
          "154829.967500",
          "154832.577500",
          "154835.190000",
          "154837.800000",
          "154840.410000",
          "154843.020000",
          "154845.630000",
          "154848.242500",
          "154850.852500",
          "154853.462500",
          "154856.072500",
          "154858.682500",
          "154901.292500",
          "154903.905000",
          "154906.515000",
          "154909.125000",
          "154911.735000",
          "154914.345000",
          "154916.957500",
          "154919.567500",
          "154922.177500",
          "154924.787500",
          "154927.397500",
          "154930.007500",
          "154932.620000",
          "154935.230000",
          "154937.840000",
          "154940.450000",
          "154943.060000",
          "154945.670000",
          "154948.282500",
          "154950.892500",
          "154953.502500",
          "154956.112500",
          "154958.722500",
          "155001.335000",
          "155003.945000",
          "155006.555000",
          "155009.165000",
          "155011.775000",
          "155014.385000",
          "155016.997500",
          "155019.607500",
          "155022.217500",
          "155024.827500",
          "155027.437500",
          "155030.047500",
          "155032.660000",
          "155035.270000",
          "155037.880000",
          "155040.490000",
          "155043.100000",
          "155045.712500",
          "155048.322500",
          "155050.932500",
          "155053.542500",
          "155056.152500",
          "155058.762500",
          "155101.375000",
          "155103.985000",
          "155106.595000",
          "155109.205000",
          "155111.815000",
          "155114.425000",
          "155117.037500",
          "155119.647500",
          "155122.257500",
          "155124.867500",
          "155127.477500",
          "155130.090000",
          "155132.700000",
          "155135.310000",
          "155137.920000",
          "155140.530000",
          "155143.140000",
          "155145.752500",
          "155148.362500",
          "155150.972500",
          "155153.582500",
          "155156.192500",
          "155158.802500",
          "155201.415000",
          "155204.025000",
          "155206.635000",
          "155209.245000",
          "155211.855000",
          "155214.467500",
          "155217.077500",
          "155219.687500",
          "155222.297500",
          "155224.907500",
          "155227.517500",
          "155230.130000"
        ],
        "ContentTime": [
          "154609.937000",
          "154610.421000",
          "154610.921000",
          "154613.421000",
          "154615.921000",
          "154618.421000",
          "154621.421000",
          "154623.921000",
          "154626.421000",
          "154628.921000",
          "154631.421000",
          "154634.421000",
          "154636.921000",
          "154639.421000",
          "154641.921000",
          "154644.421000",
          "154647.421000",
          "154649.921000",
          "154652.421000",
          "154654.921000",
          "154657.421000",
          "154700.421000",
          "154702.921000",
          "154705.421000",
          "154707.921000",
          "154710.421000",
          "154713.421000",
          "154715.921000",
          "154718.421000",
          "154720.921000",
          "154723.421000",
          "154726.421000",
          "154728.921000",
          "154731.421000",
          "154733.921000",
          "154736.421000",
          "154739.421000",
          "154741.921000",
          "154744.421000",
          "154746.921000",
          "154749.421000",
          "154752.421000",
          "154754.921000",
          "154757.421000",
          "154759.921000",
          "154802.421000",
          "154805.421000",
          "154807.921000",
          "154810.421000",
          "154812.921000",
          "154815.421000",
          "154818.421000",
          "154820.921000",
          "154823.421000",
          "154825.921000",
          "154828.421000",
          "154831.421000",
          "154833.921000",
          "154836.421000",
          "154838.921000",
          "154841.421000",
          "154844.421000",
          "154846.921000",
          "154849.421000",
          "154851.921000",
          "154854.421000",
          "154857.421000",
          "154859.921000",
          "154902.421000",
          "154904.921000",
          "154907.421000",
          "154910.421000",
          "154912.921000",
          "154915.421000",
          "154917.921000",
          "154920.421000",
          "154923.421000",
          "154925.921000",
          "154928.421000",
          "154930.921000",
          "154933.421000",
          "154936.421000",
          "154938.921000",
          "154941.421000",
          "154943.921000",
          "154946.421000",
          "154949.421000",
          "154951.921000",
          "154954.421000",
          "154956.921000",
          "154959.421000",
          "155002.421000",
          "155004.921000",
          "155007.421000",
          "155009.921000",
          "155012.421000",
          "155015.421000",
          "155017.921000",
          "155020.421000",
          "155022.921000",
          "155025.421000",
          "155028.421000",
          "155030.921000",
          "155033.421000",
          "155035.921000",
          "155038.421000",
          "155041.421000",
          "155043.921000",
          "155046.421000",
          "155048.921000",
          "155051.421000",
          "155054.421000",
          "155056.921000",
          "155059.421000",
          "155101.921000",
          "155104.421000",
          "155107.421000",
          "155109.921000",
          "155112.421000",
          "155114.921000",
          "155117.421000",
          "155120.421000",
          "155122.921000",
          "155125.421000",
          "155127.921000",
          "155130.421000",
          "155133.421000",
          "155135.921000",
          "155138.421000",
          "155140.921000",
          "155143.421000",
          "155146.421000",
          "155148.921000",
          "155151.421000",
          "155153.921000",
          "155156.421000",
          "155159.421000",
          "155201.921000",
          "155204.421000",
          "155206.921000",
          "155209.421000",
          "155212.421000",
          "155214.921000",
          "155217.421000",
          "155219.921000",
          "155222.421000",
          "155225.421000",
          "155227.921000",
          "155230.421000",
          "155237.781000"
        ],
        "InstanceCreationTime": [
          "154609.937000",
          "154610.421000",
          "154610.921000",
          "154613.421000",
          "154615.921000",
          "154618.421000",
          "154621.421000",
          "154623.921000",
          "154626.421000",
          "154628.921000",
          "154631.421000",
          "154634.421000",
          "154636.921000",
          "154639.421000",
          "154641.921000",
          "154644.421000",
          "154647.421000",
          "154649.921000",
          "154652.421000",
          "154654.921000",
          "154657.421000",
          "154700.421000",
          "154702.921000",
          "154705.421000",
          "154707.921000",
          "154710.421000",
          "154713.421000",
          "154715.921000",
          "154718.421000",
          "154720.921000",
          "154723.421000",
          "154726.421000",
          "154728.921000",
          "154731.421000",
          "154733.921000",
          "154736.421000",
          "154739.421000",
          "154741.921000",
          "154744.421000",
          "154746.921000",
          "154749.421000",
          "154752.421000",
          "154754.921000",
          "154757.421000",
          "154759.921000",
          "154802.421000",
          "154805.421000",
          "154807.921000",
          "154810.421000",
          "154812.921000",
          "154815.421000",
          "154818.421000",
          "154820.921000",
          "154823.421000",
          "154825.921000",
          "154828.421000",
          "154831.421000",
          "154833.921000",
          "154836.421000",
          "154838.921000",
          "154841.421000",
          "154844.421000",
          "154846.921000",
          "154849.421000",
          "154851.921000",
          "154854.421000",
          "154857.421000",
          "154859.921000",
          "154902.421000",
          "154904.921000",
          "154907.421000",
          "154910.421000",
          "154912.921000",
          "154915.421000",
          "154917.921000",
          "154920.421000",
          "154923.421000",
          "154925.921000",
          "154928.421000",
          "154930.921000",
          "154933.421000",
          "154936.421000",
          "154938.921000",
          "154941.421000",
          "154943.921000",
          "154946.421000",
          "154949.421000",
          "154951.921000",
          "154954.421000",
          "154956.921000",
          "154959.421000",
          "155002.421000",
          "155004.921000",
          "155007.421000",
          "155009.921000",
          "155012.421000",
          "155015.421000",
          "155017.921000",
          "155020.421000",
          "155022.921000",
          "155025.421000",
          "155028.421000",
          "155030.921000",
          "155033.421000",
          "155035.921000",
          "155038.421000",
          "155041.421000",
          "155043.921000",
          "155046.421000",
          "155048.921000",
          "155051.421000",
          "155054.421000",
          "155056.921000",
          "155059.421000",
          "155101.921000",
          "155104.421000",
          "155107.421000",
          "155109.921000",
          "155112.421000",
          "155114.921000",
          "155117.421000",
          "155120.421000",
          "155122.921000",
          "155125.421000",
          "155127.921000",
          "155130.421000",
          "155133.421000",
          "155135.921000",
          "155138.421000",
          "155140.921000",
          "155143.421000",
          "155146.421000",
          "155148.921000",
          "155151.421000",
          "155153.921000",
          "155156.421000",
          "155159.421000",
          "155201.921000",
          "155204.421000",
          "155206.921000",
          "155209.421000",
          "155212.421000",
          "155214.921000",
          "155217.421000",
          "155219.921000",
          "155222.421000",
          "155225.421000",
          "155227.921000",
          "155230.421000",
          "155237.781000"
        ],
        "InstanceNumber": [
          1,
          2,
          3,
          4,
          5,
          6,
          7,
          8,
          9,
          10,
          11,
          12,
          13,
          14,
          15,
          16,
          17,
          18,
          19,
          20,
          21,
          22,
          23,
          24,
          25,
          26,
          27,
          28,
          29,
          30,
          31,
          32,
          33,
          34,
          35,
          36,
          37,
          38,
          39,
          40,
          41,
          42,
          43,
          44,
          45,
          46,
          47,
          48,
          49,
          50,
          51,
          52,
          53,
          54,
          55,
          56,
          57,
          58,
          59,
          60,
          61,
          62,
          63,
          64,
          65,
          66,
          67,
          68,
          69,
          70,
          71,
          72,
          73,
          74,
          75,
          76,
          77,
          78,
          79,
          80,
          81,
          82,
          83,
          84,
          85,
          86,
          87,
          88,
          89,
          90,
          91,
          92,
          93,
          94,
          95,
          96,
          97,
          98,
          99,
          100,
          101,
          102,
          103,
          104,
          105,
          106,
          107,
          108,
          109,
          110,
          111,
          112,
          113,
          114,
          115,
          116,
          117,
          118,
          119,
          120,
          121,
          122,
          123,
          124,
          125,
          126,
          127,
          128,
          129,
          130,
          131,
          132,
          133,
          134,
          135,
          136,
          137,
          138,
          139,
          140,
          141,
          142,
          143,
          144,
          145,
          146,
          147,
          148,
          149,
          150
        ],
        "WindowCenter": [
          868.0,
          867.0,
          867.0,
          866.0,
          867.0,
          868.0,
          867.0,
          867.0,
          867.0,
          867.0,
          867.0,
          867.0,
          867.0,
          867.0,
          867.0,
          867.0,
          867.0,
          867.0,
          867.0,
          867.0,
          868.0,
          867.0,
          866.0,
          866.0,
          868.0,
          868.0,
          867.0,
          866.0,
          866.0,
          866.0,
          866.0,
          866.0,
          866.0,
          867.0,
          868.0,
          866.0,
          866.0,
          867.0,
          867.0,
          867.0,
          866.0,
          866.0,
          868.0,
          869.0,
          868.0,
          868.0,
          868.0,
          868.0,
          868.0,
          869.0,
          869.0,
          868.0,
          867.0,
          866.0,
          866.0,
          868.0,
          868.0,
          869.0,
          869.0,
          868.0,
          867.0,
          868.0,
          868.0,
          868.0,
          867.0,
          867.0,
          868.0,
          870.0,
          869.0,
          869.0,
          868.0,
          868.0,
          868.0,
          868.0,
          869.0,
          870.0,
          869.0,
          869.0,
          870.0,
          870.0,
          870.0,
          869.0,
          869.0,
          868.0,
          868.0,
          868.0,
          868.0,
          869.0,
          868.0,
          867.0,
          867.0,
          868.0,
          869.0,
          869.0,
          869.0,
          867.0,
          868.0,
          868.0,
          867.0,
          867.0,
          869.0,
          870.0,
          869.0,
          869.0,
          868.0,
          869.0,
          870.0,
          869.0,
          868.0,
          868.0,
          869.0,
          869.0,
          868.0,
          869.0,
          869.0,
          869.0,
          869.0,
          869.0,
          870.0,
          870.0,
          870.0,
          869.0,
          869.0,
          870.0,
          870.0,
          870.0,
          870.0,
          868.0,
          869.0,
          870.0,
          870.0,
          870.0,
          870.0,
          871.0,
          870.0,
          869.0,
          868.0,
          868.0,
          868.0,
          869.0,
          869.0,
          869.0,
          870.0,
          870.0,
          871.0,
          870.0,
          869.0,
          869.0,
          870.0,
          870.0
        ],
        "WindowWidth": [
          2031.0,
          2028.0,
          2027.0,
          2025.0,
          2028.0,
          2033.0,
          2028.0,
          2025.0,
          2027.0,
          2027.0,
          2029.0,
          2029.0,
          2026.0,
          2028.0,
          2030.0,
          2028.0,
          2026.0,
          2026.0,
          2026.0,
          2029.0,
          2030.0,
          2029.0,
          2024.0,
          2024.0,
          2030.0,
          2032.0,
          2029.0,
          2024.0,
          2025.0,
          2026.0,
          2023.0,
          2022.0,
          2024.0,
          2027.0,
          2030.0,
          2024.0,
          2026.0,
          2027.0,
          2029.0,
          2026.0,
          2024.0,
          2026.0,
          2031.0,
          2034.0,
          2032.0,
          2030.0,
          2032.0,
          2033.0,
          2032.0,
          2035.0,
          2035.0,
          2031.0,
          2030.0,
          2024.0,
          2023.0,
          2031.0,
          2032.0,
          2037.0,
          2035.0,
          2032.0,
          2029.0,
          2030.0,
          2033.0,
          2031.0,
          2028.0,
          2029.0,
          2033.0,
          2038.0,
          2034.0,
          2034.0,
          2031.0,
          2032.0,
          2031.0,
          2034.0,
          2037.0,
          2039.0,
          2036.0,
          2037.0,
          2037.0,
          2040.0,
          2038.0,
          2035.0,
          2033.0,
          2033.0,
          2032.0,
          2030.0,
          2032.0,
          2034.0,
          2032.0,
          2027.0,
          2030.0,
          2033.0,
          2034.0,
          2033.0,
          2033.0,
          2029.0,
          2033.0,
          2032.0,
          2028.0,
          2028.0,
          2035.0,
          2038.0,
          2035.0,
          2033.0,
          2031.0,
          2034.0,
          2037.0,
          2033.0,
          2029.0,
          2032.0,
          2037.0,
          2036.0,
          2033.0,
          2036.0,
          2036.0,
          2035.0,
          2033.0,
          2036.0,
          2040.0,
          2038.0,
          2037.0,
          2035.0,
          2036.0,
          2038.0,
          2039.0,
          2038.0,
          2038.0,
          2033.0,
          2034.0,
          2040.0,
          2039.0,
          2038.0,
          2038.0,
          2042.0,
          2038.0,
          2034.0,
          2032.0,
          2032.0,
          2031.0,
          2033.0,
          2034.0,
          2034.0,
          2038.0,
          2039.0,
          2040.0,
          2037.0,
          2035.0,
          2035.0,
          2036.0,
          2038.0
        ]
      },
      "slices": {}
    }
  },
  "dummy_trs": 0,
  "dvars_nstd": 74.41304686859064,
  "dvars_std": 1.0993397965771812,
  "dvars_vstd": 1.0322743325503354,
  "efc": 0.5446862999214149,
  "fber": 457.4595031738281,
  "fd_mean": 0.0907566601566288,
  "fd_num": 0,
  "fd_perc": 0.0,
  "fwhm_avg": 2.905069633449824,
  "fwhm_x": 2.7999860904484914,
  "fwhm_y": 2.814195604386662,
  "fwhm_z": 3.101027205514318,
  "gcor": 0.00281844,
  "gsr_x": -0.013752457685768604,
  "gsr_y": 0.05617590993642807,
  "provenance": {
    "md5sum": "a48a8eef429b230bf4e605d8aea1301e",
    "settings": {
      "fd_thres": 0.2,
      "testing": false
    },
    "software": "mriqc",
    "version": "22.0.6",
    "webapi_port": null,
    "webapi_url": "https://mriqc.nimh.nih.gov/api/v1"
  },
  "size_t": 150,
  "size_x": 188,
  "size_y": 188,
  "size_z": 46,
  "snr": 2.3267205407058666,
  "spacing_tr": 2.5999999046325684,
  "spacing_x": 1.0957447290420532,
  "spacing_y": 1.0957447290420532,
  "spacing_z": 1.100000023841858,
  "summary_bg_k": 52.90027563842314,
  "summary_bg_mad": 21.982047724202808,
  "summary_bg_mean": 77.83109283447266,
  "summary_bg_median": 46.62666702270508,
  "summary_bg_n": 1085318.0,
  "summary_bg_p05": 30.233333587646484,
  "summary_bg_p95": 221.44000244140625,
