{
  "aor": 0.0006300666666666666,
  "aqi": 0.013833416666666667,
  "bids_meta": {
    "AcquisitionMatrixPE": 188,
    "AcquisitionNumber": 1,
    "AcquisitionTime": "16:11:24.267500",
    "BandwidthPerPixelPhaseEncode": 19.46,
    "BaseResolution": 188,
    "ConversionSoftware": "dcm2niix",
    "ConversionSoftwareVersion": "v1.0.20180606 GCC4.8.5",
    "DelayTime": 1.2,
    "DerivedVendorReportedEchoSpacing": 0.000820013,
    "DeviceSerialNumber": "18930",
    "DwellTime": 1.9e-06,
    "EchoTime": 0.02,
    "EffectiveEchoSpacing": 0.000273338,
    "FlipAngle": 80,
    "ImageComments": "Unaliased_MB2_PE2",
    "ImageOrientationPatientDICOM": [
      0.998559,
      0.0512351,
      0.0159773,
      0.00912013,
      0.131378,
      -0.99129
    ],
    "ImageType": [
      "ORIGINAL",
      "PRIMARY",
      "M",
      "MB",
      "ND",
      "MOSAIC"
    ],
    "InPlanePhaseEncodingDirectionDICOM": "COL",
    "InstitutionAddress": "Oxfordlaan_55_Maastricht_753AAF_Limburg_NL_6229_EV",
    "InstitutionName": "Scannexus",
    "InstitutionalDepartmentName": "MRI_7T",
    "MRAcquisitionType": "2D",
    "MagneticFieldStrength": 6.98,
    "Manufacturer": "Siemens",
    "ManufacturersModelName": "Investigational_Device_7T",
    "Modality": "MR",
    "MultibandAccelerationFactor": 2,
    "ParallelReductionFactorInPlane": 3,
    "PartialFourier": 0.75,
    "PatientPosition": "HFS",
    "PercentPhaseFOV": 100,
    "PhaseEncodingDirection": "j",
    "PhaseEncodingSteps": 141,
    "PhaseResolution": 1,
    "PixelBandwidth": 1400,
    "ProcedureStepDescription": "FeDem_Faruk",
    "ProtocolName": "cmrr_mbep2d_bold_AP_run8",
    "PulseSequenceDetails": "%CustomerSeq%_cmrr_mbep2d_bold",
    "ReceiveCoilName": "32Ch_Head_7T",
    "ReconMatrixPE": 188,
    "RepetitionTime": 2.6,
    "SAR": 0.0579323,
    "ScanOptions": "PFP_FS",
    "ScanningSequence": "EP",
    "SequenceName": "epfid2d1_188",
    "SequenceVariant": "SK_SS",
    "SeriesDescription": "cmrr_mbep2d_bold_AP_run8",
    "SeriesNumber": 21,
    "ShimSetting": [
      100,
      -69,
      465,
      394,
      -246,
      272,
      386,
      86
    ],
    "SliceThickness": 1.1,
    "SliceTiming": [
      0,
      0.7325,
      0.06,
      0.795,
      0.1225,
      0.855,
      0.1825,
      0.9175,
      0.245,
      0.9775,
      0.305,
      1.0375,
      0.3675,
      1.1,
      0.4275,
      1.16,
      0.4875,
      1.2225,
      0.55,
      1.2825,
      0.61,
      1.345,
      0.6725,
      0,
      0.7325,
      0.06,
      0.795,
      0.1225,
      0.855,
      0.1825,
      0.9175,
      0.245,
      0.9775,
      0.305,
      1.0375,
      0.3675,
      1.1,
      0.4275,
      1.16,
      0.4875,
      1.2225,
      0.55,
      1.2825,
      0.61,
      1.345,
      0.6725
    ],
    "SoftwareVersions": "syngo_MR_B17",
    "SpacingBetweenSlices": 1.1,
    "StationName": "MRC18930",
    "TaskName": "auditory",
    "TotalReadoutTime": 0.0511141,
    "TxRefAmp": 195,
    "dataset": "ds001942",
    "dcmmeta_affine": [
      [
        -1.094165563583374,
        0.009993336163461208,
        0.05817669257521629,
        101.1329345703125
      ],
      [
        -0.05614057183265686,
        0.14395633339881897,
        -1.0890082120895386,
        32.92335510253906
      ],
      [
        0.017507025972008705,
        1.0862013101577759,
        0.14379310607910156,
        -111.92818450927734
      ],
      [
        0.0,
        0.0,
        0.0,
        1.0
      ]
    ],
    "dcmmeta_reorient_transform": [
      [
        0.0,
        -1.0,
        0.0,
        187.0
      ],
      [
        1.0,
        0.0,
        0.0,
        0.0
      ],
      [
        0.0,
        0.0,
        1.0,
        0.0
      ],
      [
        0.0,
        0.0,
        0.0,
        1.0
      ]
    ],
    "dcmmeta_shape": [
      188,
      188,
      46,
      150
    ],
    "dcmmeta_slice_dim": 2,
    "dcmmeta_version": 0.6,
    "global": {
      "const": {
        "AcquisitionMatrix": [
          188,
          0,
          0,
          188
        ],
        "AngioFlag": "N",
        "BitsAllocated": 16,
        "BitsStored": 12,
        "Columns": 1316,
        "EchoNumbers": 1,
        "EchoTime": 20.0,
        "EchoTrainLength": 1,
        "FlipAngle": 80.0,
        "HighBit": 11,
        "ImageOrientationPatient": [
          0.99855880789424,
          0.05123508108882,
          0.01597728520941,
          0.00912013137267,
          0.13137761291988,
          -0.991290444838
        ],
        "ImagePositionPatient": [
          -725.74730394333,
          -172.69783867623,
          693.93501472834
        ],
        "ImageType": [
          "ORIGINAL",
          "PRIMARY",
          "M",
          "MB",
          "ND",
          "MOSAIC"
        ],
        "ImagedNucleus": "1H",
        "ImagingFrequency": 297.205554,
        "InPlanePhaseEncodingDirection": "COL",
        "LargestImagePixelValue": 4095,
        "MRAcquisitionType": "2D",
        "MagneticFieldStrength": 6.98,
        "Manufacturer": "SIEMENS",
        "ManufacturerModelName": "Investigational_Device_7T",
        "Modality": "MR",
        "NumberOfAverages": 1.0,
        "NumberOfPhaseEncodingSteps": 141,
        "PercentPhaseFieldOfView": 100.0,
        "PercentSampling": 100.0,
        "PerformedProcedureStepStartTime": "145017.984000",
        "PhotometricInterpretation": "MONOCHROME2",
        "PixelBandwidth": 1400.0,
        "PixelRepresentation": 0,
        "PixelSpacing": [
          1.0957447290421,
          1.0957447290421
        ],
        "ProtocolName": "cmrr_mbep2d_bold_AP_run8",
        "RepetitionTime": 2600.0,
        "Rows": 1316,
        "SAR": 0.05793228092184,
        "SamplesPerPixel": 1,
        "ScanOptions": [
          "PFP",
          "FS"
        ],
        "ScanningSequence": "EP",
        "SequenceName": "epfid2d1_188",
        "SequenceVariant": [
          "SK",
          "SS"
        ],
        "SeriesDescription": "cmrr_mbep2d_bold_AP_run8",
        "SeriesNumber": 21,
        "SeriesTime": "161133.656000",
        "SliceLocation": -41.877024908674,
        "SliceThickness": 1.1000000238419,
        "SmallestImagePixelValue": 0,
        "SoftwareVersions": "syngo MR B17",
        "SpacingBetweenSlices": 1.0999999933357,
        "SpecificCharacterSet": "ISO_IR 100",
        "StudyID": "1",
        "StudyTime": "145017.921000",
        "TransmitCoilName": "32Ch_Head_7T",
        "VariableFlipAngleFlag": "N",
        "WindowCenterWidthExplanation": "Algo1",
        "dBdt": 0.0
      },
      "slices": {}
    },
    "modality": "bold",
    "run_id": 8,
    "session_id": "SES03",
    "subject_id": "S03",
    "task_id": "auditory",
    "time": {
      "samples": {
        "AcquisitionNumber": [
          1,
          2,
          3,
          4,
          5,
          6,
          7,
          8,
          9,
          10,
          11,
          12,
          13,
          14,
          15,
          16,
          17,
          18,
          19,
          20,
          21,
          22,
          23,
          24,
          25,
          26,
          27,
          28,
          29,
          30,
          31,
          32,
          33,
          34,
          35,
          36,
          37,
          38,
          39,
          40,
          41,
          42,
          43,
          44,
          45,
          46,
          47,
          48,
          49,
          50,
          51,
          52,
          53,
          54,
          55,
          56,
          57,
          58,
          59,
          60,
          61,
          62,
          63,
          64,
          65,
          66,
          67,
          68,
          69,
          70,
          71,
          72,
          73,
          74,
          75,
          76,
          77,
          78,
          79,
          80,
          81,
          82,
          83,
          84,
          85,
          86,
          87,
          88,
          89,
          90,
          91,
          92,
          93,
          94,
          95,
          96,
          97,
          98,
          99,
          100,
          101,
          102,
          103,
          104,
          105,
          106,
          107,
          108,
          109,
          110,
          111,
          112,
          113,
          114,
          115,
          116,
          117,
          118,
          119,
          120,
          121,
          122,
          123,
          124,
          125,
          126,
          127,
          128,
          129,
          130,
          131,
          132,
          133,
          134,
          135,
          136,
          137,
          138,
          139,
          140,
          141,
          142,
          143,
          144,
          145,
          146,
          147,
          148,
          149,
          150
        ],
        "AcquisitionTime": [
          "161124.267500",
          "161126.877500",
          "161129.487500",
          "161132.097500",
          "161134.710000",
          "161137.320000",
          "161139.930000",
          "161142.540000",
          "161145.150000",
          "161147.760000",
          "161150.372500",
          "161152.982500",
          "161155.592500",
          "161158.202500",
          "161200.812500",
          "161203.425000",
          "161206.035000",
          "161208.645000",
          "161211.255000",
          "161213.865000",
          "161216.475000",
          "161219.087500",
          "161221.697500",
          "161224.307500",
          "161226.917500",
          "161229.527500",
          "161232.137500",
          "161234.750000",
          "161237.360000",
          "161239.970000",
          "161242.580000",
          "161245.190000",
          "161247.802500",
          "161250.412500",
          "161253.022500",
          "161255.632500",
          "161258.242500",
          "161300.852500",
          "161303.465000",
          "161306.075000",
          "161308.685000",
          "161311.295000",
          "161313.905000",
          "161316.515000",
          "161319.127500",
          "161321.737500",
          "161324.347500",
          "161326.957500",
          "161329.567500",
          "161332.180000",
          "161334.790000",
          "161337.400000",
          "161340.010000",
          "161342.620000",
          "161345.230000",
          "161347.842500",
          "161350.452500",
          "161353.062500",
          "161355.672500",
          "161358.282500",
          "161400.892500",
          "161403.505000",
          "161406.115000",
          "161408.725000",
          "161411.335000",
          "161413.945000",
          "161416.557500",
          "161419.167500",
          "161421.777500",
          "161424.387500",
          "161426.997500",
          "161429.607500",
          "161432.220000",
          "161434.830000",
          "161437.440000",
          "161440.050000",
          "161442.660000",
          "161445.270000",
          "161447.882500",
          "161450.492500",
          "161453.102500",
          "161455.712500",
          "161458.322500",
          "161500.935000",
          "161503.545000",
          "161506.155000",
          "161508.765000",
          "161511.375000",
          "161513.985000",
          "161516.597500",
          "161519.207500",
          "161521.817500",
          "161524.427500",
          "161527.037500",
          "161529.647500",
          "161532.260000",
          "161534.870000",
          "161537.480000",
          "161540.090000",
          "161542.700000",
          "161545.312500",
          "161547.922500",
          "161550.532500",
          "161553.142500",
          "161555.752500",
          "161558.362500",
          "161600.975000",
          "161603.585000",
          "161606.195000",
          "161608.805000",
          "161611.415000",
          "161614.027500",
          "161616.637500",
          "161619.247500",
          "161621.857500",
          "161624.467500",
          "161627.077500",
          "161629.690000",
          "161632.300000",
          "161634.910000",
          "161637.520000",
          "161640.130000",
          "161642.740000",
          "161645.352500",
          "161647.962500",
          "161650.572500",
          "161653.182500",
          "161655.792500",
          "161658.405000",
          "161701.015000",
          "161703.625000",
          "161706.235000",
          "161708.845000",
          "161711.455000",
          "161714.067500",
          "161716.677500",
          "161719.287500",
          "161721.897500",
          "161724.507500",
          "161727.117500",
          "161729.730000",
          "161732.340000",
          "161734.950000",
          "161737.560000",
          "161740.170000",
          "161742.782500",
          "161745.392500",
          "161748.002500",
          "161750.612500",
          "161753.222500"
        ],
        "ContentTime": [
          "161133.656000",
          "161133.656000",
          "161134.640000",
          "161136.640000",
          "161139.140000",
          "161142.140000",
          "161144.640000",
          "161147.140000",
          "161149.640000",
          "161152.140000",
          "161155.140000",
          "161157.640000",
          "161200.140000",
          "161202.640000",
          "161205.140000",
          "161208.140000",
          "161210.640000",
          "161213.140000",
          "161215.640000",
          "161218.140000",
          "161221.140000",
          "161223.640000",
          "161226.140000",
          "161228.640000",
          "161231.140000",
          "161234.140000",
          "161236.640000",
          "161239.140000",
          "161241.640000",
          "161244.140000",
          "161247.140000",
          "161249.640000",
          "161252.140000",
          "161254.640000",
          "161257.140000",
          "161300.140000",
          "161302.640000",
          "161305.140000",
          "161307.640000",
          "161310.140000",
          "161313.140000",
          "161315.640000",
          "161318.140000",
          "161320.656000",
          "161323.140000",
          "161326.140000",
          "161328.640000",
          "161331.140000",
          "161333.640000",
          "161336.140000",
          "161339.140000",
          "161341.640000",
          "161344.140000",
          "161346.640000",
          "161349.140000",
          "161352.140000",
          "161354.640000",
          "161357.140000",
          "161359.640000",
          "161402.640000",
          "161405.140000",
          "161407.640000",
          "161410.140000",
          "161412.640000",
          "161415.140000",
          "161418.140000",
          "161420.640000",
          "161423.140000",
          "161425.640000",
          "161428.140000",
          "161431.140000",
          "161433.640000",
          "161436.140000",
          "161438.640000",
          "161441.140000",
          "161444.140000",
          "161446.640000",
          "161449.140000",
          "161451.640000",
          "161454.140000",
          "161457.140000",
          "161459.640000",
          "161502.140000",
          "161504.640000",
          "161507.140000",
          "161510.140000",
          "161512.640000",
          "161515.140000",
          "161517.640000",
          "161520.140000",
          "161523.140000",
          "161525.640000",
          "161528.140000",
          "161530.640000",
          "161533.140000",
          "161536.140000",
          "161538.640000",
          "161541.140000",
          "161543.640000",
          "161546.140000",
          "161549.140000",
          "161551.640000",
          "161554.140000",
          "161556.640000",
          "161559.140000",
          "161602.140000",
          "161604.640000",
          "161607.140000",
          "161609.640000",
          "161612.140000",
          "161615.140000",
          "161617.640000",
          "161620.140000",
          "161622.640000",
          "161625.140000",
          "161628.140000",
          "161630.640000",
          "161633.140000",
          "161635.640000",
          "161638.140000",
          "161641.140000",
          "161643.640000",
          "161646.140000",
          "161648.640000",
          "161651.140000",
          "161654.140000",
          "161656.640000",
          "161659.140000",
          "161701.640000",
          "161704.140000",
          "161707.140000",
          "161709.640000",
          "161712.140000",
          "161714.640000",
          "161717.140000",
          "161720.140000",
          "161722.640000",
          "161725.140000",
          "161727.640000",
          "161730.140000",
          "161733.140000",
          "161735.640000",
          "161738.140000",
          "161740.640000",
          "161743.140000",
          "161746.140000",
          "161748.640000",
          "161751.140000",
          "161753.640000",
          "161801.078000"
        ],
        "InstanceCreationTime": [
          "161133.656000",
          "161133.656000",
          "161134.640000",
          "161136.640000",
          "161139.140000",
          "161142.140000",
          "161144.640000",
          "161147.140000",
          "161149.640000",
          "161152.140000",
          "161155.140000",
          "161157.640000",
          "161200.140000",
          "161202.640000",
          "161205.140000",
          "161208.140000",
          "161210.640000",
          "161213.140000",
          "161215.640000",
          "161218.140000",
          "161221.140000",
          "161223.640000",
          "161226.140000",
          "161228.640000",
          "161231.140000",
          "161234.140000",
          "161236.640000",
          "161239.140000",
          "161241.640000",
          "161244.140000",
          "161247.140000",
          "161249.640000",
          "161252.140000",
          "161254.640000",
          "161257.140000",
          "161300.140000",
          "161302.640000",
          "161305.140000",
          "161307.640000",
          "161310.140000",
          "161313.140000",
          "161315.640000",
          "161318.140000",
          "161320.656000",
          "161323.140000",
          "161326.140000",
          "161328.640000",
          "161331.140000",
          "161333.640000",
          "161336.140000",
          "161339.140000",
          "161341.640000",
          "161344.140000",
          "161346.640000",
          "161349.140000",
          "161352.140000",
          "161354.640000",
          "161357.140000",
          "161359.640000",
          "161402.640000",
          "161405.140000",
          "161407.640000",
          "161410.140000",
          "161412.640000",
          "161415.140000",
          "161418.140000",
          "161420.640000",
          "161423.140000",
          "161425.640000",
          "161428.140000",
          "161431.140000",
          "161433.640000",
          "161436.140000",
          "161438.640000",
          "161441.140000",
          "161444.140000",
          "161446.640000",
          "161449.140000",
          "161451.640000",
          "161454.140000",
          "161457.140000",
          "161459.640000",
          "161502.140000",
          "161504.640000",
          "161507.140000",
          "161510.140000",
          "161512.640000",
          "161515.140000",
          "161517.640000",
          "161520.140000",
          "161523.140000",
          "161525.640000",
          "161528.140000",
          "161530.640000",
          "161533.140000",
          "161536.140000",
          "161538.640000",
          "161541.140000",
          "161543.640000",
          "161546.140000",
          "161549.140000",
          "161551.640000",
          "161554.140000",
          "161556.640000",
          "161559.140000",
          "161602.140000",
          "161604.640000",
          "161607.140000",
          "161609.640000",
          "161612.140000",
          "161615.140000",
          "161617.640000",
          "161620.140000",
          "161622.640000",
          "161625.140000",
          "161628.140000",
          "161630.640000",
          "161633.140000",
          "161635.640000",
          "161638.140000",
          "161641.140000",
          "161643.640000",
          "161646.140000",
          "161648.640000",
          "161651.140000",
          "161654.140000",
          "161656.640000",
          "161659.140000",
          "161701.640000",
          "161704.140000",
          "161707.140000",
          "161709.640000",
          "161712.140000",
          "161714.640000",
          "161717.140000",
          "161720.140000",
          "161722.640000",
          "161725.140000",
          "161727.640000",
          "161730.140000",
          "161733.140000",
          "161735.640000",
          "161738.140000",
          "161740.640000",
          "161743.140000",
          "161746.140000",
          "161748.640000",
          "161751.140000",
          "161753.640000",
          "161801.078000"
        ],
        "InstanceNumber": [
          1,
          2,
          3,
          4,
          5,
          6,
          7,
          8,
          9,
          10,
          11,
          12,
          13,
          14,
          15,
          16,
          17,
          18,
          19,
          20,
          21,
          22,
          23,
          24,
          25,
          26,
          27,
          28,
          29,
          30,
          31,
          32,
          33,
          34,
          35,
          36,
          37,
          38,
          39,
          40,
          41,
          42,
          43,
          44,
          45,
          46,
          47,
          48,
          49,
          50,
          51,
          52,
          53,
          54,
          55,
          56,
          57,
          58,
          59,
          60,
          61,
          62,
          63,
          64,
          65,
          66,
          67,
          68,
          69,
          70,
          71,
          72,
          73,
          74,
          75,
          76,
          77,
          78,
          79,
          80,
          81,
          82,
          83,
          84,
          85,
          86,
          87,
          88,
          89,
          90,
          91,
          92,
          93,
          94,
          95,
          96,
          97,
          98,
          99,
          100,
          101,
          102,
          103,
          104,
          105,
          106,
          107,
          108,
          109,
          110,
          111,
          112,
          113,
          114,
          115,
          116,
          117,
          118,
          119,
          120,
          121,
          122,
          123,
          124,
          125,
          126,
          127,
          128,
          129,
          130,
          131,
          132,
          133,
          134,
          135,
          136,
          137,
          138,
          139,
          140,
          141,
          142,
          143,
          144,
          145,
          146,
          147,
          148,
          149,
          150
        ],
        "WindowCenter": [
          871.0,
          869.0,
          870.0,
          871.0,
          870.0,
          869.0,
          869.0,
          869.0,
          869.0,
          869.0,
          869.0,
          869.0,
          868.0,
          868.0,
          870.0,
          870.0,
          869.0,
          869.0,
          869.0,
          870.0,
          871.0,
          870.0,
          869.0,
          868.0,
          868.0,
          869.0,
          869.0,
          869.0,
          869.0,
          869.0,
          869.0,
          870.0,
          870.0,
          869.0,
          870.0,
          872.0,
          870.0,
          868.0,
          869.0,
          871.0,
          870.0,
          868.0,
          869.0,
          869.0,
          869.0,
          869.0,
          869.0,
          869.0,
          870.0,
          871.0,
          870.0,
          868.0,
          869.0,
          870.0,
          870.0,
          870.0,
          870.0,
          869.0,
          869.0,
          870.0,
          870.0,
          869.0,
          869.0,
          870.0,
          870.0,
          869.0,
          869.0,
          870.0,
          870.0,
          869.0,
          869.0,
          870.0,
          869.0,
          870.0,
          872.0,
          870.0,
          869.0,
          868.0,
          870.0,
          871.0,
          869.0,
          870.0,
          869.0,
          869.0,
          868.0,
          869.0,
          868.0,
          868.0,
          869.0,
          869.0,
          868.0,
          868.0,
          869.0,
          870.0,
          868.0,
          867.0,
          867.0,
          869.0,
          870.0,
          870.0,
          869.0,
          869.0,
          870.0,
          871.0,
          871.0,
          870.0,
          870.0,
          871.0,
          870.0,
          869.0,
          869.0,
          870.0,
          871.0,
          870.0,
          869.0,
          868.0,
          868.0,
          869.0,
          870.0,
          870.0,
          869.0,
          869.0,
          869.0,
          869.0,
          869.0,
          869.0,
          870.0,
          870.0,
          870.0,
          869.0,
          870.0,
          870.0,
          870.0,
          869.0,
          869.0,
          870.0,
          870.0,
          870.0,
          869.0,
          869.0,
          869.0,
          869.0,
          869.0,
          869.0,
          868.0,
          869.0,
          870.0,
          869.0,
          869.0,
          869.0
        ],
        "WindowWidth": [
          2041.0,
          2035.0,
          2038.0,
          2039.0,
          2037.0,
          2033.0,
          2031.0,
          2032.0,
          2033.0,
          2034.0,
          2031.0,
          2033.0,
          2031.0,
          2031.0,
          2035.0,
          2038.0,
          2034.0,
          2032.0,
          2035.0,
          2039.0,
          2042.0,
          2037.0,
          2033.0,
          2030.0,
          2030.0,
          2033.0,
          2033.0,
          2032.0,
          2030.0,
          2032.0,
          2033.0,
          2037.0,
          2036.0,
          2035.0,
          2041.0,
          2048.0,
          2035.0,
          2028.0,
          2033.0,
          2038.0,
          2036.0,
          2030.0,
          2033.0,
          2033.0,
          2030.0,
          2034.0,
          2034.0,
          2031.0,
          2036.0,
          2040.0,
          2035.0,
          2029.0,
          2031.0,
          2035.0,
          2035.0,
          2036.0,
          2035.0,
          2031.0,
          2032.0,
          2039.0,
          2037.0,
          2032.0,
          2032.0,
          2035.0,
          2038.0,
          2033.0,
          2033.0,
          2036.0,
          2035.0,
          2035.0,
          2034.0,
          2039.0,
          2037.0,
          2037.0,
          2046.0,
          2038.0,
          2033.0,
          2032.0,
          2039.0,
          2038.0,
          2033.0,
          2035.0,
          2034.0,
          2032.0,
          2030.0,
          2031.0,
          2030.0,
          2029.0,
          2033.0,
          2033.0,
          2029.0,
          2028.0,
          2034.0,
          2035.0,
          2030.0,
          2024.0,
          2026.0,
          2032.0,
          2035.0,
          2035.0,
          2034.0,
          2034.0,
          2035.0,
          2038.0,
          2038.0,
          2035.0,
          2036.0,
          2040.0,
          2036.0,
          2030.0,
          2032.0,
          2037.0,
          2039.0,
          2035.0,
          2031.0,
          2030.0,
          2030.0,
          2033.0,
          2037.0,
          2034.0,
          2032.0,
          2034.0,
          2033.0,
          2031.0,
          2034.0,
          2033.0,
          2037.0,
          2038.0,
          2037.0,
          2034.0,
          2035.0,
          2039.0,
          2035.0,
          2031.0,
          2033.0,
          2036.0,
          2036.0,
          2037.0,
          2034.0,
          2031.0,
          2033.0,
          2036.0,
          2034.0,
          2031.0,
          2030.0,
          2032.0,
          2037.0,
          2033.0,
          2034.0,
          2034.0
        ]
      },
      "slices": {}
    }
  },
  "dummy_trs": 0,
  "dvars_nstd": 75.06559062174499,
  "dvars_std": 1.09614678147651,
  "dvars_vstd": 1.0157679836912752,
  "efc": 0.5448752336499607,
  "fber": 441.34161376953125,
  "fd_mean": 0.10917692507208954,
  "fd_num": 4,
  "fd_perc": 2.6666666666666665,
  "fwhm_avg": 2.9101851791028963,
  "fwhm_x": 2.8073874493462796,
  "fwhm_y": 2.8047499737341206,
  "fwhm_z": 3.1184181142282896,
  "gcor": 0.0020599,
  "gsr_x": -0.012458951212465763,
  "gsr_y": 0.054906126111745834,
  "provenance": {
    "md5sum": "1fc182fbd619712f1cf0de912163e317",
    "settings": {
      "fd_thres": 0.2,
      "testing": false
    },
    "software": "mriqc",
    "version": "23.0.1",
    "webapi_port": null,
    "webapi_url": "https://mriqc.nimh.nih.gov/api/v1"
  },
  "size_t": 150,
  "size_x": 188,
  "size_y": 188,
  "size_z": 46,
  "snr": 2.3064251463618515,
  "spacing_tr": 2.5999999046325684,
  "spacing_x": 1.0957447290420532,
  "spacing_y": 1.0957447290420532,
  "spacing_z": 1.100000023841858,
  "summary_bg_k": 53.68465529576821,
  "summary_bg_mad": 22.91114847016897,
  "summary_bg_mean": 78.9388427734375,
  "summary_bg_median": 47.42000198364258,
  "summary_bg_n": 1085337.0,
  "summary_bg_p05": 30.346668243408203,
  "summary_bg_p95": 226.8800048828125,
