{
  "aor": 0.0005173148148148147,
  "aqi": 0.020967622685185188,
  "bids_meta": {
    "AcquisitionMatrixPE": 188,
    "AcquisitionNumber": 1,
    "AcquisitionTime": "15:41:41.010000",
    "BandwidthPerPixelPhaseEncode": 19.46,
    "BaseResolution": 188,
    "ConversionSoftware": "dcm2niix",
    "ConversionSoftwareVersion": "v1.0.20180606 GCC4.8.5",
    "DelayTime": 1.2,
    "DerivedVendorReportedEchoSpacing": 0.000820013,
    "DeviceSerialNumber": "18930",
    "DwellTime": 1.9e-06,
    "EchoTime": 0.02,
    "EffectiveEchoSpacing": 0.000273338,
    "FlipAngle": 80,
    "ImageComments": "Unaliased_MB2_PE2",
    "ImageOrientationPatientDICOM": [
      0.997821,
      0.028021,
      -0.0597332,
      -0.06312,
      0.14179,
      -0.987882
    ],
    "ImageType": [
      "ORIGINAL",
      "PRIMARY",
      "M",
      "MB",
      "ND",
      "MOSAIC"
    ],
    "InPlanePhaseEncodingDirectionDICOM": "COL",
    "InstitutionAddress": "Oxfordlaan_55_Maastricht_Limburg_NL_6229_EV",
    "InstitutionName": "Scannexus",
    "InstitutionalDepartmentName": "MRI_7T",
    "MRAcquisitionType": "2D",
    "MagneticFieldStrength": 6.98,
    "Manufacturer": "Siemens",
    "ManufacturersModelName": "Investigational_Device_7T",
    "Modality": "MR",
    "MultibandAccelerationFactor": 2,
    "ParallelReductionFactorInPlane": 3,
    "PartialFourier": 0.75,
    "PatientPosition": "HFS",
    "PercentPhaseFOV": 100,
    "PhaseEncodingDirection": "j",
    "PhaseEncodingSteps": 141,
    "PhaseResolution": 1,
    "PixelBandwidth": 1400,
    "ProcedureStepDescription": "FeDem_Faruk",
    "ProtocolName": "cmrr_mbep2d_bold_AP_run5",
    "PulseSequenceDetails": "%CustomerSeq%_cmrr_mbep2d_bold",
    "ReceiveCoilName": "32Ch_Head_7T",
    "ReconMatrixPE": 188,
    "RepetitionTime": 2.6,
    "SAR": 0.0930903,
    "ScanOptions": "PFP_FS",
    "ScanningSequence": "EP",
    "SequenceName": "epfid2d1_188",
    "SequenceVariant": "SK_SS",
    "SeriesDescription": "cmrr_mbep2d_bold_AP_run5",
    "SeriesNumber": 14,
    "ShimSetting": [
      100,
      -161,
      486,
      430,
      -28,
      -229,
      -278,
      176
    ],
    "SliceThickness": 1.1,
    "SliceTiming": [
      0,
      0.735,
      0.0625,
      0.795,
      0.1225,
      0.855,
      0.185,
      0.9175,
      0.245,
      0.9775,
      0.305,
      1.04,
      0.3675,
      1.1,
      0.4275,
      1.1625,
      0.49,
      1.2225,
      0.55,
      1.285,
      0.6125,
      1.345,
      0.6725,
      0,
      0.735,
      0.0625,
      0.795,
      0.1225,
      0.855,
      0.185,
      0.9175,
      0.245,
      0.9775,
      0.305,
      1.04,
      0.3675,
      1.1,
      0.4275,
      1.1625,
      0.49,
      1.2225,
      0.55,
      1.285,
      0.6125,
      1.345,
      0.6725
    ],
    "SoftwareVersions": "syngo_MR_B17",
    "SpacingBetweenSlices": 1.1,
    "StationName": "MRC18930",
    "TaskName": "auditory",
    "TotalReadoutTime": 0.0511141,
    "TxRefAmp": 245,
    "dataset": "ds001942",
    "dcmmeta_affine": [
      [
        -1.0933570861816406,
        -0.06916341930627823,
        0.021133068948984146,
        104.83399200439453
      ],
      [
        -0.030703885480761528,
        0.1553657054901123,
        -1.088449239730835,
        33.75456619262695
      ],
      [
        -0.06545233726501465,
        1.0824668407440186,
        0.15757465362548828,
        -118.5897445678711
      ],
      [
        0.0,
        0.0,
        0.0,
        1.0
      ]
    ],
    "dcmmeta_reorient_transform": [
      [
        0.0,
        -1.0,
        0.0,
        187.0
      ],
      [
        1.0,
        0.0,
        0.0,
        0.0
      ],
      [
        0.0,
        0.0,
        1.0,
        0.0
      ],
      [
        0.0,
        0.0,
        0.0,
        1.0
      ]
    ],
    "dcmmeta_shape": [
      188,
      188,
      46,
      216
    ],
    "dcmmeta_slice_dim": 2,
    "dcmmeta_version": 0.6,
    "global": {
      "const": {
        "AcquisitionMatrix": [
          188,
          0,
          0,
          188
        ],
        "AngioFlag": "N",
        "BitsAllocated": 16,
        "BitsStored": 12,
        "Columns": 1316,
        "EchoNumbers": 1,
        "EchoTime": 20.0,
        "EchoTrainLength": 1,
        "FlipAngle": 80.0,
        "HighBit": 11,
        "ImageOrientationPatient": [
          0.99782100966385,
          0.02802101971216,
          -0.0597331995436,
          -0.0631200106673,
          0.1417900610645,
          -0.9878823021174
        ],
        "ImagePositionPatient": [
          -669.54567872493,
          -167.7512079547,
          731.25795682871
        ],
        "ImageType": [
          "ORIGINAL",
          "PRIMARY",
          "M",
          "MB",
          "ND",
          "MOSAIC"
        ],
        "ImagedNucleus": "1H",
        "ImagingFrequency": 297.205488,
        "InPlanePhaseEncodingDirection": "COL",
        "LargestImagePixelValue": 4095,
        "MRAcquisitionType": "2D",
        "MagneticFieldStrength": 6.98,
        "Manufacturer": "SIEMENS",
        "ManufacturerModelName": "Investigational_Device_7T",
        "Modality": "MR",
        "NumberOfAverages": 1.0,
        "NumberOfPhaseEncodingSteps": 141,
        "PercentPhaseFieldOfView": 100.0,
        "PercentSampling": 100.0,
        "PerformedProcedureStepStartTime": "142429.390000",
        "PhotometricInterpretation": "MONOCHROME2",
        "PixelBandwidth": 1400.0,
        "PixelRepresentation": 0,
        "PixelSpacing": [
          1.0957447290421,
          1.0957447290421
        ],
        "ProtocolName": "cmrr_mbep2d_bold_AP_run5",
        "RepetitionTime": 2600.0,
        "Rows": 1316,
        "SAR": 0.09309025482484,
        "SamplesPerPixel": 1,
        "ScanOptions": [
          "PFP",
          "FS"
        ],
        "ScanningSequence": "EP",
        "SequenceName": "epfid2d1_188",
        "SequenceVariant": [
          "SK",
          "SS"
        ],
        "SeriesDescription": "cmrr_mbep2d_bold_AP_run5",
        "SeriesNumber": 14,
        "SeriesTime": "154253.093000",
        "SliceLocation": -48.374043508033,
        "SliceThickness": 1.1000000238419,
        "SmallestImagePixelValue": 0,
        "SoftwareVersions": "syngo MR B17",
        "SpacingBetweenSlices": 1.0999991725909,
        "SpecificCharacterSet": "ISO_IR 100",
        "StudyID": "1",
        "StudyTime": "142429.359000",
        "TransmitCoilName": "32Ch_Head_7T",
        "VariableFlipAngleFlag": "N",
        "WindowCenterWidthExplanation": "Algo1",
        "dBdt": 0.0
      },
      "slices": {}
    },
    "modality": "bold",
    "run_id": 5,
    "session_id": "SES04",
    "subject_id": "S11",
    "task_id": "auditory",
    "time": {
      "samples": {
        "AcquisitionNumber": [
          1,
          2,
          3,
          4,
          5,
          6,
          7,
          8,
          9,
          10,
          11,
          12,
          13,
          14,
          15,
          16,
          17,
          18,
          19,
          20,
          21,
          22,
          23,
          24,
          25,
          26,
          27,
          28,
          29,
          30,
          31,
          32,
          33,
          34,
          35,
          36,
          37,
          38,
          39,
          40,
          41,
          42,
          43,
          44,
          45,
          46,
          47,
          48,
          49,
          50,
          51,
          52,
          53,
          54,
          55,
          56,
          57,
          58,
          59,
          60,
          61,
          62,
          63,
          64,
          65,
          66,
          67,
          68,
          69,
          70,
          71,
          72,
          73,
          74,
          75,
          76,
          77,
          78,
          79,
          80,
          81,
          82,
          83,
          84,
          85,
          86,
          87,
          88,
          89,
          90,
          91,
          92,
          93,
          94,
          95,
          96,
          97,
          98,
          99,
          100,
          101,
          102,
          103,
          104,
          105,
          106,
          107,
          108,
          109,
          110,
          111,
          112,
          113,
          114,
          115,
          116,
          117,
          118,
          119,
          120,
          121,
          122,
          123,
          124,
          125,
          126,
          127,
          128,
          129,
          130,
          131,
          132,
          133,
          134,
          135,
          136,
          137,
          138,
          139,
          140,
          141,
          142,
          143,
          144,
          145,
          146,
          147,
          148,
          149,
          150,
          151,
          152,
          153,
          154,
          155,
          156,
          157,
          158,
          159,
          160,
          161,
          162,
          163,
          164,
          165,
          166,
          167,
          168,
          169,
          170,
          171,
          172,
          173,
          174,
          175,
          176,
          177,
          178,
          179,
          180,
          181,
          182,
          183,
          184,
          185,
          186,
          187,
          188,
          189,
          190,
          191,
          192,
          193,
          194,
          195,
          196,
          197,
          198,
          199,
          200,
          201,
          202,
          203,
          204,
          205,
          206,
          207,
          208,
          209,
          210,
          211,
          212,
          213,
          214,
          215,
          216
        ],
        "AcquisitionTime": [
          "154141.010000",
          "154143.620000",
          "154146.232500",
          "154148.842500",
          "154151.452500",
          "154154.062500",
          "154156.672500",
          "154159.285000",
          "154201.895000",
          "154204.505000",
          "154207.115000",
          "154209.725000",
          "154212.335000",
          "154214.947500",
          "154217.557500",
          "154220.167500",
          "154222.777500",
          "154225.387500",
          "154227.997500",
          "154230.610000",
          "154233.220000",
          "154235.830000",
          "154238.440000",
          "154241.050000",
          "154243.662500",
          "154246.272500",
          "154248.882500",
          "154251.492500",
          "154254.102500",
          "154256.712500",
          "154259.325000",
          "154301.935000",
          "154304.545000",
          "154307.155000",
          "154309.765000",
          "154312.375000",
          "154314.987500",
          "154317.597500",
          "154320.207500",
          "154322.817500",
          "154325.427500",
          "154328.040000",
          "154330.650000",
          "154333.260000",
          "154335.870000",
          "154338.480000",
          "154341.090000",
          "154343.702500",
          "154346.312500",
          "154348.922500",
          "154351.532500",
          "154354.142500",
          "154356.752500",
          "154359.365000",
          "154401.975000",
          "154404.585000",
          "154407.195000",
          "154409.805000",
          "154412.417500",
          "154415.027500",
          "154417.637500",
          "154420.247500",
          "154422.857500",
          "154425.467500",
          "154428.080000",
          "154430.690000",
          "154433.300000",
          "154435.910000",
          "154438.520000",
          "154441.130000",
          "154443.742500",
          "154446.352500",
          "154448.962500",
          "154451.572500",
          "154454.182500",
          "154456.795000",
          "154459.405000",
          "154502.015000",
          "154504.625000",
          "154507.235000",
          "154509.845000",
          "154512.457500",
          "154515.067500",
          "154517.677500",
          "154520.287500",
          "154522.897500",
          "154525.507500",
          "154528.120000",
          "154530.730000",
          "154533.340000",
          "154535.950000",
          "154538.560000",
          "154541.172500",
          "154543.782500",
          "154546.392500",
          "154549.002500",
          "154551.612500",
          "154554.222500",
          "154556.835000",
          "154559.445000",
          "154602.055000",
          "154604.665000",
          "154607.275000",
          "154609.885000",
          "154612.497500",
          "154615.107500",
          "154617.717500",
          "154620.327500",
          "154622.937500",
          "154625.550000",
          "154628.160000",
          "154630.770000",
          "154633.380000",
          "154635.990000",
          "154638.600000",
          "154641.212500",
          "154643.822500",
          "154646.432500",
          "154649.042500",
          "154651.652500",
          "154654.262500",
          "154656.875000",
          "154659.485000",
          "154702.095000",
          "154704.705000",
          "154707.315000",
          "154709.927500",
          "154712.537500",
          "154715.147500",
          "154717.757500",
          "154720.367500",
          "154722.977500",
          "154725.590000",
          "154728.200000",
          "154730.810000",
          "154733.420000",
          "154736.030000",
          "154738.640000",
          "154741.252500",
          "154743.862500",
          "154746.472500",
          "154749.082500",
          "154751.692500",
          "154754.305000",
          "154756.915000",
          "154759.525000",
          "154802.135000",
          "154804.745000",
          "154807.355000",
          "154809.967500",
          "154812.577500",
          "154815.187500",
          "154817.797500",
          "154820.407500",
          "154823.017500",
          "154825.630000",
          "154828.240000",
          "154830.850000",
          "154833.460000",
          "154836.070000",
          "154838.682500",
          "154841.292500",
          "154843.902500",
          "154846.512500",
          "154849.122500",
          "154851.732500",
          "154854.345000",
          "154856.955000",
          "154859.565000",
          "154902.175000",
          "154904.785000",
          "154907.395000",
          "154910.007500",
          "154912.617500",
          "154915.227500",
          "154917.837500",
          "154920.447500",
          "154923.060000",
          "154925.670000",
          "154928.280000",
          "154930.890000",
          "154933.500000",
          "154936.110000",
          "154938.722500",
          "154941.332500",
          "154943.942500",
          "154946.552500",
          "154949.162500",
          "154951.772500",
          "154954.385000",
          "154956.995000",
          "154959.605000",
          "155002.215000",
          "155004.825000",
          "155007.437500",
          "155010.047500",
          "155012.657500",
          "155015.267500",
          "155017.877500",
          "155020.487500",
          "155023.100000",
          "155025.710000",
          "155028.320000",
          "155030.930000",
          "155033.540000",
          "155036.150000",
          "155038.762500",
          "155041.372500",
          "155043.982500",
          "155046.592500",
          "155049.202500",
          "155051.815000",
          "155054.425000",
          "155057.035000",
          "155059.645000",
          "155102.255000"
        ],
        "ContentTime": [
          "154253.093000",
          "154253.093000",
          "154253.109000",
          "154253.109000",
          "154253.109000",
          "154253.109000",
          "154253.109000",
          "154253.109000",
          "154253.109000",
          "154253.109000",
          "154253.125000",
          "154253.125000",
          "154253.125000",
          "154253.125000",
          "154253.125000",
          "154253.125000",
          "154253.140000",
          "154253.140000",
          "154253.140000",
          "154253.156000",
          "154253.156000",
          "154253.156000",
          "154253.156000",
          "154253.156000",
          "154253.156000",
          "154253.156000",
          "154253.156000",
          "154353.093000",
          "154353.093000",
          "154353.093000",
          "154353.093000",
          "154353.093000",
          "154353.109000",
          "154353.109000",
          "154353.109000",
          "154353.109000",
          "154353.109000",
          "154353.109000",
          "154353.109000",
          "154353.109000",
          "154353.125000",
          "154353.125000",
          "154353.125000",
          "154353.125000",
          "154353.140000",
          "154353.140000",
          "154353.140000",
          "154353.140000",
          "154353.156000",
          "154353.156000",
          "154453.093000",
          "154453.093000",
          "154453.093000",
          "154453.093000",
          "154453.093000",
          "154453.109000",
          "154453.125000",
          "154453.125000",
          "154453.140000",
          "154453.140000",
          "154453.140000",
          "154453.140000",
          "154453.140000",
          "154453.140000",
          "154453.140000",
          "154453.156000",
          "154453.156000",
          "154453.156000",
          "154453.156000",
          "154453.156000",
          "154453.156000",
          "154453.156000",
          "154453.156000",
          "154553.093000",
          "154553.093000",
          "154553.093000",
          "154553.093000",
          "154553.093000",
          "154553.109000",
          "154553.109000",
          "154553.109000",
          "154553.109000",
          "154553.109000",
          "154553.109000",
          "154553.109000",
          "154553.109000",
          "154553.125000",
          "154553.125000",
          "154553.125000",
          "154553.125000",
          "154553.125000",
          "154553.125000",
          "154553.125000",
          "154553.125000",
          "154553.140000",
          "154553.140000",
          "154653.093000",
          "154653.093000",
          "154653.093000",
          "154653.093000",
          "154653.093000",
          "154653.093000",
          "154653.109000",
          "154653.109000",
          "154653.109000",
          "154653.109000",
          "154653.125000",
          "154653.125000",
          "154653.125000",
          "154653.125000",
          "154653.125000",
          "154653.125000",
          "154653.125000",
          "154653.125000",
          "154653.140000",
          "154653.140000",
          "154653.140000",
          "154653.140000",
          "154653.140000",
          "154753.093000",
          "154753.093000",
          "154753.093000",
          "154753.093000",
          "154753.093000",
          "154753.109000",
          "154753.109000",
          "154753.109000",
          "154753.109000",
          "154753.109000",
          "154753.109000",
          "154753.109000",
          "154753.109000",
          "154753.125000",
          "154753.125000",
          "154753.125000",
          "154753.125000",
          "154753.125000",
          "154753.125000",
          "154753.125000",
          "154753.125000",
          "154753.140000",
          "154753.140000",
          "154813.093000",
          "154813.093000",
          "154813.093000",
          "154813.093000",
          "154813.109000",
          "154813.109000",
          "154813.109000",
          "154813.109000",
          "154913.093000",
          "154913.093000",
          "154913.093000",
          "154913.093000",
          "154913.093000",
          "154913.109000",
          "154913.109000",
          "154913.109000",
          "154913.109000",
          "154913.109000",
          "154913.109000",
          "154913.109000",
          "154913.109000",
          "154913.125000",
          "154913.125000",
          "154913.125000",
          "154913.125000",
          "154913.125000",
          "154913.125000",
          "154913.125000",
          "154913.140000",
          "154913.140000",
          "154913.140000",
          "155013.093000",
          "155013.093000",
          "155013.093000",
          "155013.093000",
          "155013.109000",
          "155013.109000",
          "155013.109000",
          "155013.109000",
          "155013.109000",
          "155013.109000",
          "155013.109000",
          "155013.125000",
          "155013.125000",
          "155013.125000",
          "155013.125000",
          "155013.125000",
          "155013.125000",
          "155013.125000",
          "155013.125000",
          "155013.140000",
          "155013.140000",
          "155013.140000",
          "155013.140000",
          "155109.343000",
          "155109.343000",
          "155109.343000",
          "155109.343000",
          "155109.343000",
          "155109.343000",
          "155109.343000",
          "155109.359000",
          "155109.359000",
          "155109.359000",
          "155109.359000",
          "155109.359000",
          "155109.359000",
          "155109.359000",
          "155109.375000",
          "155109.375000",
          "155109.375000",
          "155109.375000",
          "155109.375000",
          "155109.375000"
        ],
        "InstanceCreationTime": [
          "154253.093000",
          "154253.093000",
          "154253.109000",
          "154253.109000",
          "154253.109000",
          "154253.109000",
          "154253.109000",
          "154253.109000",
          "154253.109000",
          "154253.109000",
          "154253.125000",
          "154253.125000",
          "154253.125000",
          "154253.125000",
          "154253.125000",
          "154253.125000",
          "154253.140000",
          "154253.140000",
          "154253.140000",
          "154253.156000",
          "154253.156000",
          "154253.156000",
          "154253.156000",
          "154253.156000",
          "154253.156000",
          "154253.156000",
          "154253.156000",
          "154353.093000",
          "154353.093000",
          "154353.093000",
          "154353.093000",
          "154353.093000",
          "154353.109000",
          "154353.109000",
          "154353.109000",
          "154353.109000",
          "154353.109000",
          "154353.109000",
          "154353.109000",
          "154353.109000",
          "154353.125000",
          "154353.125000",
          "154353.125000",
          "154353.125000",
          "154353.140000",
          "154353.140000",
          "154353.140000",
          "154353.140000",
          "154353.156000",
          "154353.156000",
          "154453.093000",
          "154453.093000",
          "154453.093000",
          "154453.093000",
          "154453.093000",
          "154453.109000",
          "154453.125000",
          "154453.125000",
          "154453.140000",
          "154453.140000",
          "154453.140000",
          "154453.140000",
          "154453.140000",
          "154453.140000",
          "154453.140000",
          "154453.156000",
          "154453.156000",
          "154453.156000",
          "154453.156000",
          "154453.156000",
          "154453.156000",
          "154453.156000",
          "154453.156000",
          "154553.093000",
          "154553.093000",
          "154553.093000",
          "154553.093000",
          "154553.093000",
          "154553.109000",
          "154553.109000",
          "154553.109000",
          "154553.109000",
          "154553.109000",
          "154553.109000",
          "154553.109000",
          "154553.109000",
          "154553.125000",
          "154553.125000",
          "154553.125000",
          "154553.125000",
          "154553.125000",
          "154553.125000",
          "154553.125000",
          "154553.125000",
          "154553.140000",
          "154553.140000",
          "154653.093000",
          "154653.093000",
          "154653.093000",
          "154653.093000",
          "154653.093000",
          "154653.093000",
          "154653.109000",
          "154653.109000",
          "154653.109000",
          "154653.109000",
          "154653.125000",
          "154653.125000",
          "154653.125000",
          "154653.125000",
          "154653.125000",
          "154653.125000",
          "154653.125000",
          "154653.125000",
          "154653.140000",
          "154653.140000",
          "154653.140000",
          "154653.140000",
          "154653.140000",
          "154753.093000",
          "154753.093000",
          "154753.093000",
          "154753.093000",
          "154753.093000",
          "154753.109000",
          "154753.109000",
          "154753.109000",
          "154753.109000",
          "154753.109000",
          "154753.109000",
          "154753.109000",
          "154753.109000",
          "154753.125000",
          "154753.125000",
          "154753.125000",
          "154753.125000",
          "154753.125000",
          "154753.125000",
          "154753.125000",
          "154753.125000",
          "154753.140000",
          "154753.140000",
          "154813.093000",
          "154813.093000",
          "154813.093000",
          "154813.093000",
          "154813.109000",
          "154813.109000",
          "154813.109000",
          "154813.109000",
          "154913.093000",
          "154913.093000",
          "154913.093000",
          "154913.093000",
          "154913.093000",
          "154913.109000",
          "154913.109000",
          "154913.109000",
          "154913.109000",
          "154913.109000",
          "154913.109000",
          "154913.109000",
          "154913.109000",
          "154913.125000",
          "154913.125000",
          "154913.125000",
          "154913.125000",
          "154913.125000",
          "154913.125000",
          "154913.125000",
          "154913.140000",
          "154913.140000",
          "154913.140000",
          "155013.093000",
          "155013.093000",
          "155013.093000",
          "155013.093000",
          "155013.109000",
          "155013.109000",
          "155013.109000",
          "155013.109000",
          "155013.109000",
          "155013.109000",
          "155013.109000",
          "155013.125000",
          "155013.125000",
          "155013.125000",
          "155013.125000",
          "155013.125000",
          "155013.125000",
          "155013.125000",
          "155013.125000",
          "155013.140000",
          "155013.140000",
          "155013.140000",
          "155013.140000",
          "155109.343000",
          "155109.343000",
          "155109.343000",
          "155109.343000",
          "155109.343000",
          "155109.343000",
          "155109.343000",
          "155109.359000",
          "155109.359000",
          "155109.359000",
          "155109.359000",
          "155109.359000",
          "155109.359000",
          "155109.359000",
          "155109.375000",
          "155109.375000",
          "155109.375000",
          "155109.375000",
          "155109.375000",
          "155109.375000"
        ],
        "InstanceNumber": [
          1,
          2,
          3,
          4,
          5,
          6,
          7,
          8,
          9,
          10,
          11,
          12,
          13,
          14,
          15,
          16,
          17,
          18,
          19,
          20,
          21,
          22,
          23,
          24,
          25,
          26,
          27,
          28,
          29,
          30,
          31,
          32,
          33,
          34,
          35,
          36,
          37,
          38,
          39,
          40,
          41,
          42,
          43,
          44,
          45,
          46,
          47,
          48,
          49,
          50,
          51,
          52,
          53,
          54,
          55,
          56,
          57,
          58,
          59,
          60,
          61,
          62,
          63,
          64,
          65,
          66,
          67,
          68,
          69,
          70,
          71,
          72,
          73,
          74,
          75,
          76,
          77,
          78,
          79,
          80,
          81,
          82,
          83,
          84,
          85,
          86,
          87,
          88,
          89,
          90,
          91,
          92,
          93,
          94,
          95,
          96,
          97,
          98,
          99,
          100,
          101,
          102,
          103,
          104,
          105,
          106,
          107,
          108,
          109,
          110,
          111,
          112,
          113,
          114,
          115,
          116,
          117,
          118,
          119,
          120,
          121,
          122,
          123,
          124,
          125,
          126,
          127,
          128,
          129,
          130,
          131,
          132,
          133,
          134,
          135,
          136,
          137,
          138,
          139,
          140,
          141,
          142,
          143,
          144,
          145,
          146,
          147,
          148,
          149,
          150,
          151,
          152,
          153,
          154,
          155,
          156,
          157,
          158,
          159,
          160,
          161,
          162,
          163,
          164,
          165,
          166,
          167,
          168,
          169,
          170,
