{
  "aor": 0.0008283796296296295,
  "aqi": 0.016427986574074075,
  "bids_meta": {
    "AcquisitionMatrixPE": 188,
    "AcquisitionNumber": 1,
    "AcquisitionTime": "16:03:2.007500",
    "BandwidthPerPixelPhaseEncode": 19.46,
    "BaseResolution": 188,
    "ConversionSoftware": "dcm2niix",
    "ConversionSoftwareVersion": "v1.0.20180606 GCC4.8.5",
    "DelayTime": 1.2,
    "DerivedVendorReportedEchoSpacing": 0.000820013,
    "DeviceSerialNumber": "18930",
    "DwellTime": 1.9e-06,
    "EchoTime": 0.02,
    "EffectiveEchoSpacing": 0.000273338,
    "FlipAngle": 80,
    "ImageComments": "Unaliased_MB2_PE2",
    "ImageOrientationPatientDICOM": [
      0.997821,
      0.028021,
      -0.0597332,
      -0.06312,
      0.14179,
      -0.987882
    ],
    "ImageType": [
      "ORIGINAL",
      "PRIMARY",
      "M",
      "MB",
      "ND",
      "MOSAIC"
    ],
    "InPlanePhaseEncodingDirectionDICOM": "COL",
    "InstitutionAddress": "Oxfordlaan_55_Maastricht_Limburg_NL_6229_EV",
    "InstitutionName": "Scannexus",
    "InstitutionalDepartmentName": "MRI_7T",
    "MRAcquisitionType": "2D",
    "MagneticFieldStrength": 6.98,
    "Manufacturer": "Siemens",
    "ManufacturersModelName": "Investigational_Device_7T",
    "Modality": "MR",
    "MultibandAccelerationFactor": 2,
    "ParallelReductionFactorInPlane": 3,
    "PartialFourier": 0.75,
    "PatientPosition": "HFS",
    "PercentPhaseFOV": 100,
    "PhaseEncodingDirection": "j",
    "PhaseEncodingSteps": 141,
    "PhaseResolution": 1,
    "PixelBandwidth": 1400,
    "ProcedureStepDescription": "FeDem_Faruk",
    "ProtocolName": "cmrr_mbep2d_bold_AP_run7",
    "PulseSequenceDetails": "%CustomerSeq%_cmrr_mbep2d_bold",
    "ReceiveCoilName": "32Ch_Head_7T",
    "ReconMatrixPE": 188,
    "RepetitionTime": 2.6,
    "SAR": 0.0927115,
    "ScanOptions": "PFP_FS",
    "ScanningSequence": "EP",
    "SequenceName": "epfid2d1_188",
    "SequenceVariant": "SK_SS",
    "SeriesDescription": "cmrr_mbep2d_bold_AP_run7",
    "SeriesNumber": 16,
    "ShimSetting": [
      100,
      -161,
      486,
      430,
      -28,
      -229,
      -278,
      176
    ],
    "SliceThickness": 1.1,
    "SliceTiming": [
      0,
      0.7325,
      0.06,
      0.7925,
      0.1225,
      0.855,
      0.1825,
      0.915,
      0.2425,
      0.9775,
      0.305,
      1.0375,
      0.365,
      1.1,
      0.4275,
      1.16,
      0.4875,
      1.2225,
      0.55,
      1.2825,
      0.61,
      1.3425,
      0.6725,
      0,
      0.7325,
      0.06,
      0.7925,
      0.1225,
      0.855,
      0.1825,
      0.915,
      0.2425,
      0.9775,
      0.305,
      1.0375,
      0.365,
      1.1,
      0.4275,
      1.16,
      0.4875,
      1.2225,
      0.55,
      1.2825,
      0.61,
      1.3425,
      0.6725
    ],
    "SoftwareVersions": "syngo_MR_B17",
    "SpacingBetweenSlices": 1.1,
    "StationName": "MRC18930",
    "TaskName": "auditory",
    "TotalReadoutTime": 0.0511141,
    "TxRefAmp": 245,
    "dataset": "ds001942",
    "dcmmeta_affine": [
      [
        -1.0933570861816406,
        -0.06916341930627823,
        0.021133068948984146,
        104.83399200439453
      ],
      [
        -0.030703885480761528,
        0.1553657054901123,
        -1.088449239730835,
        33.75456619262695
      ],
      [
        -0.06545233726501465,
        1.0824668407440186,
        0.15757465362548828,
        -118.5897445678711
      ],
      [
        0.0,
        0.0,
        0.0,
        1.0
      ]
    ],
    "dcmmeta_reorient_transform": [
      [
        0.0,
        -1.0,
        0.0,
        187.0
      ],
      [
        1.0,
        0.0,
        0.0,
        0.0
      ],
      [
        0.0,
        0.0,
        1.0,
        0.0
      ],
      [
        0.0,
        0.0,
        0.0,
        1.0
      ]
    ],
    "dcmmeta_shape": [
      188,
      188,
      46,
      216
    ],
    "dcmmeta_slice_dim": 2,
    "dcmmeta_version": 0.6,
    "global": {
      "const": {
        "AcquisitionMatrix": [
          188,
          0,
          0,
          188
        ],
        "AngioFlag": "N",
        "BitsAllocated": 16,
        "BitsStored": 12,
        "Columns": 1316,
        "EchoNumbers": 1,
        "EchoTime": 20.0,
        "EchoTrainLength": 1,
        "FlipAngle": 80.0,
        "HighBit": 11,
        "ImageOrientationPatient": [
          0.99782100966385,
          0.02802101971216,
          -0.0597331995436,
          -0.0631200106673,
          0.1417900610645,
          -0.9878823021174
        ],
        "ImagePositionPatient": [
          -669.54567872493,
          -167.7512079547,
          731.25795682871
        ],
        "ImageType": [
          "ORIGINAL",
          "PRIMARY",
          "M",
          "MB",
          "ND",
          "MOSAIC"
        ],
        "ImagedNucleus": "1H",
        "ImagingFrequency": 297.205492,
        "InPlanePhaseEncodingDirection": "COL",
        "LargestImagePixelValue": 4095,
        "MRAcquisitionType": "2D",
        "MagneticFieldStrength": 6.98,
        "Manufacturer": "SIEMENS",
        "ManufacturerModelName": "Investigational_Device_7T",
        "Modality": "MR",
        "NumberOfAverages": 1.0,
        "NumberOfPhaseEncodingSteps": 141,
        "PercentPhaseFieldOfView": 100.0,
        "PercentSampling": 100.0,
        "PerformedProcedureStepStartTime": "142429.390000",
        "PhotometricInterpretation": "MONOCHROME2",
        "PixelBandwidth": 1400.0,
        "PixelRepresentation": 0,
        "PixelSpacing": [
          1.0957447290421,
          1.0957447290421
        ],
        "ProtocolName": "cmrr_mbep2d_bold_AP_run7",
        "RepetitionTime": 2600.0,
        "Rows": 1316,
        "SAR": 0.09271145285264,
        "SamplesPerPixel": 1,
        "ScanOptions": [
          "PFP",
          "FS"
        ],
        "ScanningSequence": "EP",
        "SequenceName": "epfid2d1_188",
        "SequenceVariant": [
          "SK",
          "SS"
        ],
        "SeriesDescription": "cmrr_mbep2d_bold_AP_run7",
        "SeriesNumber": 16,
        "SeriesTime": "160407.750000",
        "SliceLocation": -48.374043508033,
        "SliceThickness": 1.1000000238419,
        "SmallestImagePixelValue": 0,
        "SoftwareVersions": "syngo MR B17",
        "SpacingBetweenSlices": 1.0999991725909,
        "SpecificCharacterSet": "ISO_IR 100",
        "StudyID": "1",
        "StudyTime": "142429.359000",
        "TransmitCoilName": "32Ch_Head_7T",
        "VariableFlipAngleFlag": "N",
        "WindowCenterWidthExplanation": "Algo1",
        "dBdt": 0.0
      },
      "slices": {}
    },
    "modality": "bold",
    "run_id": 7,
    "session_id": "SES04",
    "subject_id": "S11",
    "task_id": "auditory",
    "time": {
      "samples": {
        "AcquisitionNumber": [
          1,
          2,
          3,
          4,
          5,
          6,
          7,
          8,
          9,
          10,
          11,
          12,
          13,
          14,
          15,
          16,
          17,
          18,
          19,
          20,
          21,
          22,
          23,
          24,
          25,
          26,
          27,
          28,
          29,
          30,
          31,
          32,
          33,
          34,
          35,
          36,
          37,
          38,
          39,
          40,
          41,
          42,
          43,
          44,
          45,
          46,
          47,
          48,
          49,
          50,
          51,
          52,
          53,
          54,
          55,
          56,
          57,
          58,
          59,
          60,
          61,
          62,
          63,
          64,
          65,
          66,
          67,
          68,
          69,
          70,
          71,
          72,
          73,
          74,
          75,
          76,
          77,
          78,
          79,
          80,
          81,
          82,
          83,
          84,
          85,
          86,
          87,
          88,
          89,
          90,
          91,
          92,
          93,
          94,
          95,
          96,
          97,
          98,
          99,
          100,
          101,
          102,
          103,
          104,
          105,
          106,
          107,
          108,
          109,
          110,
          111,
          112,
          113,
          114,
          115,
          116,
          117,
          118,
          119,
          120,
          121,
          122,
          123,
          124,
          125,
          126,
          127,
          128,
          129,
          130,
          131,
          132,
          133,
          134,
          135,
          136,
          137,
          138,
          139,
          140,
          141,
          142,
          143,
          144,
          145,
          146,
          147,
          148,
          149,
          150,
          151,
          152,
          153,
          154,
          155,
          156,
          157,
          158,
          159,
          160,
          161,
          162,
          163,
          164,
          165,
          166,
          167,
          168,
          169,
          170,
          171,
          172,
          173,
          174,
          175,
          176,
          177,
          178,
          179,
          180,
          181,
          182,
          183,
          184,
          185,
          186,
          187,
          188,
          189,
          190,
          191,
          192,
          193,
          194,
          195,
          196,
          197,
          198,
          199,
          200,
          201,
          202,
          203,
          204,
          205,
          206,
          207,
          208,
          209,
          210,
          211,
          212,
          213,
          214,
          215,
          216
        ],
        "AcquisitionTime": [
          "160302.007500",
          "160304.617500",
          "160307.227500",
          "160309.837500",
          "160312.447500",
          "160315.060000",
          "160317.670000",
          "160320.280000",
          "160322.890000",
          "160325.500000",
          "160328.110000",
          "160330.722500",
          "160333.332500",
          "160335.942500",
          "160338.552500",
          "160341.162500",
          "160343.775000",
          "160346.385000",
          "160348.995000",
          "160351.605000",
          "160354.215000",
          "160356.825000",
          "160359.437500",
          "160402.047500",
          "160404.657500",
          "160407.267500",
          "160409.877500",
          "160412.487500",
          "160415.100000",
          "160417.710000",
          "160420.320000",
          "160422.930000",
          "160425.540000",
          "160428.152500",
          "160430.762500",
          "160433.372500",
          "160435.982500",
          "160438.592500",
          "160441.202500",
          "160443.815000",
          "160446.425000",
          "160449.035000",
          "160451.645000",
          "160454.255000",
          "160456.865000",
          "160459.477500",
          "160502.087500",
          "160504.697500",
          "160507.307500",
          "160509.917500",
          "160512.530000",
          "160515.140000",
          "160517.750000",
          "160520.360000",
          "160522.970000",
          "160525.580000",
          "160528.192500",
          "160530.802500",
          "160533.412500",
          "160536.022500",
          "160538.632500",
          "160541.242500",
          "160543.855000",
          "160546.465000",
          "160549.075000",
          "160551.685000",
          "160554.295000",
          "160556.907500",
          "160559.517500",
          "160602.127500",
          "160604.737500",
          "160607.347500",
          "160609.957500",
          "160612.570000",
          "160615.180000",
          "160617.790000",
          "160620.400000",
          "160623.010000",
          "160625.620000",
          "160628.232500",
          "160630.842500",
          "160633.452500",
          "160636.062500",
          "160638.672500",
          "160641.285000",
          "160643.895000",
          "160646.505000",
          "160649.115000",
          "160651.725000",
          "160654.335000",
          "160656.947500",
          "160659.557500",
          "160702.167500",
          "160704.777500",
          "160707.387500",
          "160709.997500",
          "160712.610000",
          "160715.220000",
          "160717.830000",
          "160720.440000",
          "160723.050000",
          "160725.662500",
          "160728.272500",
          "160730.882500",
          "160733.492500",
          "160736.102500",
          "160738.712500",
          "160741.325000",
          "160743.935000",
          "160746.545000",
          "160749.155000",
          "160751.765000",
          "160754.375000",
          "160756.987500",
          "160759.597500",
          "160802.207500",
          "160804.817500",
          "160807.427500",
          "160810.040000",
          "160812.650000",
          "160815.260000",
          "160817.870000",
          "160820.480000",
          "160823.090000",
          "160825.702500",
          "160828.312500",
          "160830.922500",
          "160833.532500",
          "160836.142500",
          "160838.752500",
          "160841.365000",
          "160843.975000",
          "160846.585000",
          "160849.195000",
          "160851.805000",
          "160854.417500",
          "160857.027500",
          "160859.637500",
          "160902.247500",
          "160904.857500",
          "160907.467500",
          "160910.080000",
          "160912.690000",
          "160915.300000",
          "160917.910000",
          "160920.520000",
          "160923.132500",
          "160925.742500",
          "160928.352500",
          "160930.962500",
          "160933.572500",
          "160936.182500",
          "160938.795000",
          "160941.405000",
          "160944.015000",
          "160946.625000",
          "160949.235000",
          "160951.845000",
          "160954.457500",
          "160957.067500",
          "160959.677500",
          "161002.287500",
          "161004.897500",
          "161007.510000",
          "161010.120000",
          "161012.730000",
          "161015.340000",
          "161017.950000",
          "161020.560000",
          "161023.172500",
          "161025.782500",
          "161028.392500",
          "161031.002500",
          "161033.612500",
          "161036.222500",
          "161038.835000",
          "161041.445000",
          "161044.055000",
          "161046.665000",
          "161049.275000",
          "161051.887500",
          "161054.497500",
          "161057.107500",
          "161059.717500",
          "161102.327500",
          "161104.937500",
          "161107.550000",
          "161110.160000",
          "161112.770000",
          "161115.380000",
          "161117.990000",
          "161120.600000",
          "161123.212500",
          "161125.822500",
          "161128.432500",
          "161131.042500",
          "161133.652500",
          "161136.265000",
          "161138.875000",
          "161141.485000",
          "161144.095000",
          "161146.705000",
          "161149.315000",
          "161151.927500",
          "161154.537500",
          "161157.147500",
          "161159.757500",
          "161202.367500",
          "161204.977500",
          "161207.590000",
          "161210.200000",
          "161212.810000",
          "161215.420000",
          "161218.030000",
          "161220.642500",
          "161223.252500"
        ],
        "ContentTime": [
          "160407.750000",
          "160407.765000",
          "160407.765000",
          "160407.765000",
          "160407.765000",
          "160407.765000",
          "160407.765000",
          "160407.781000",
          "160407.781000",
          "160407.781000",
          "160407.781000",
          "160407.781000",
          "160407.781000",
          "160407.781000",
          "160407.796000",
          "160407.796000",
          "160407.796000",
          "160407.796000",
          "160407.796000",
          "160407.796000",
          "160407.796000",
          "160407.812000",
          "160407.812000",
          "160407.812000",
          "160507.750000",
          "160507.750000",
          "160507.750000",
          "160507.750000",
          "160507.750000",
          "160507.750000",
          "160507.765000",
          "160507.765000",
          "160507.765000",
          "160507.765000",
          "160507.765000",
          "160507.765000",
          "160507.765000",
          "160507.765000",
          "160507.781000",
          "160507.781000",
          "160507.781000",
          "160507.781000",
          "160507.781000",
          "160507.781000",
          "160507.796000",
          "160507.796000",
          "160507.796000",
          "160607.750000",
          "160607.750000",
          "160607.750000",
          "160607.750000",
          "160607.750000",
          "160607.765000",
          "160607.765000",
          "160607.765000",
          "160607.765000",
          "160607.765000",
          "160607.765000",
          "160607.765000",
          "160607.765000",
          "160607.781000",
          "160607.781000",
          "160607.781000",
          "160607.781000",
          "160607.781000",
          "160607.781000",
          "160607.781000",
          "160607.781000",
          "160607.796000",
          "160607.796000",
          "160707.750000",
          "160707.750000",
          "160707.750000",
          "160707.750000",
          "160707.750000",
          "160707.765000",
          "160707.765000",
          "160707.765000",
          "160707.765000",
          "160707.765000",
          "160707.765000",
          "160707.765000",
          "160707.765000",
          "160707.781000",
          "160707.781000",
          "160707.781000",
          "160707.781000",
          "160707.781000",
          "160707.781000",
          "160707.781000",
          "160707.796000",
          "160707.796000",
          "160707.796000",
          "160807.750000",
          "160807.750000",
          "160807.750000",
          "160807.765000",
          "160807.765000",
          "160807.765000",
          "160807.765000",
          "160807.765000",
          "160807.765000",
          "160807.781000",
          "160807.781000",
          "160807.781000",
          "160807.781000",
          "160807.781000",
          "160807.781000",
          "160807.781000",
          "160807.781000",
          "160807.796000",
          "160807.796000",
          "160807.796000",
          "160807.796000",
          "160807.796000",
          "160807.796000",
          "160827.750000",
          "160827.750000",
          "160827.750000",
          "160827.750000",
          "160827.750000",
          "160827.750000",
          "160827.765000",
          "160827.765000",
          "160927.750000",
          "160927.750000",
          "160927.750000",
          "160927.750000",
          "160927.750000",
          "160927.750000",
          "160927.765000",
          "160927.765000",
          "160927.765000",
          "160927.765000",
          "160927.765000",
          "160927.765000",
          "160927.765000",
          "160927.765000",
          "160927.781000",
          "160927.781000",
          "160927.781000",
          "160927.781000",
          "160927.781000",
          "160927.781000",
          "160927.781000",
          "160927.796000",
          "160927.796000",
          "161027.750000",
          "161027.750000",
          "161027.750000",
          "161027.750000",
          "161027.750000",
          "161027.750000",
          "161027.765000",
          "161027.765000",
          "161027.765000",
          "161027.765000",
          "161027.781000",
          "161027.781000",
          "161027.781000",
          "161027.781000",
          "161027.781000",
          "161027.781000",
          "161027.781000",
          "161027.781000",
          "161027.796000",
          "161027.796000",
          "161027.796000",
          "161027.796000",
          "161027.796000",
          "161127.750000",
          "161127.750000",
          "161127.750000",
          "161127.750000",
          "161127.750000",
          "161127.750000",
          "161127.765000",
          "161127.765000",
          "161127.765000",
          "161127.765000",
          "161127.765000",
          "161127.765000",
          "161127.765000",
          "161127.765000",
          "161127.781000",
          "161127.781000",
          "161127.781000",
          "161127.781000",
          "161127.781000",
          "161127.781000",
          "161127.781000",
          "161127.796000",
          "161127.796000",
          "161227.750000",
          "161227.750000",
          "161227.750000",
          "161227.750000",
          "161227.750000",
          "161227.765000",
          "161227.765000",
          "161227.765000",
          "161227.765000",
          "161227.765000",
          "161227.765000",
          "161227.765000",
          "161227.765000",
          "161227.781000",
          "161227.781000",
          "161227.781000",
          "161227.781000",
          "161227.781000",
          "161227.781000",
          "161227.796000",
          "161227.796000",
          "161227.796000",
          "161231.062000"
        ],
        "InstanceCreationTime": [
          "160407.750000",
          "160407.765000",
          "160407.765000",
          "160407.765000",
          "160407.765000",
          "160407.765000",
          "160407.765000",
          "160407.781000",
          "160407.781000",
          "160407.781000",
          "160407.781000",
          "160407.781000",
          "160407.781000",
          "160407.781000",
          "160407.796000",
          "160407.796000",
          "160407.796000",
          "160407.796000",
          "160407.796000",
          "160407.796000",
          "160407.796000",
          "160407.812000",
          "160407.812000",
          "160407.812000",
          "160507.750000",
          "160507.750000",
          "160507.750000",
          "160507.750000",
          "160507.750000",
          "160507.750000",
          "160507.765000",
          "160507.765000",
          "160507.765000",
          "160507.765000",
          "160507.765000",
          "160507.765000",
          "160507.765000",
          "160507.765000",
          "160507.781000",
          "160507.781000",
          "160507.781000",
          "160507.781000",
          "160507.781000",
          "160507.781000",
          "160507.796000",
          "160507.796000",
          "160507.796000",
          "160607.750000",
          "160607.750000",
          "160607.750000",
          "160607.750000",
          "160607.750000",
          "160607.765000",
          "160607.765000",
          "160607.765000",
          "160607.765000",
          "160607.765000",
          "160607.765000",
          "160607.765000",
          "160607.765000",
          "160607.781000",
          "160607.781000",
          "160607.781000",
          "160607.781000",
          "160607.781000",
          "160607.781000",
          "160607.781000",
          "160607.781000",
          "160607.796000",
          "160607.796000",
          "160707.750000",
          "160707.750000",
          "160707.750000",
          "160707.750000",
          "160707.750000",
          "160707.765000",
          "160707.765000",
          "160707.765000",
          "160707.765000",
          "160707.765000",
          "160707.765000",
          "160707.765000",
          "160707.765000",
          "160707.781000",
          "160707.781000",
          "160707.781000",
          "160707.781000",
          "160707.781000",
          "160707.781000",
          "160707.781000",
          "160707.796000",
          "160707.796000",
          "160707.796000",
          "160807.750000",
          "160807.750000",
          "160807.750000",
          "160807.765000",
          "160807.765000",
          "160807.765000",
          "160807.765000",
          "160807.765000",
          "160807.765000",
          "160807.781000",
          "160807.781000",
          "160807.781000",
          "160807.781000",
          "160807.781000",
          "160807.781000",
          "160807.781000",
          "160807.781000",
          "160807.796000",
          "160807.796000",
          "160807.796000",
          "160807.796000",
          "160807.796000",
          "160807.796000",
          "160827.750000",
          "160827.750000",
          "160827.750000",
          "160827.750000",
          "160827.750000",
          "160827.750000",
          "160827.765000",
          "160827.765000",
          "160927.750000",
          "160927.750000",
          "160927.750000",
          "160927.750000",
          "160927.750000",
          "160927.750000",
          "160927.765000",
          "160927.765000",
          "160927.765000",
          "160927.765000",
          "160927.765000",
          "160927.765000",
          "160927.765000",
          "160927.765000",
          "160927.781000",
          "160927.781000",
          "160927.781000",
          "160927.781000",
          "160927.781000",
          "160927.781000",
          "160927.781000",
          "160927.796000",
          "160927.796000",
          "161027.750000",
          "161027.750000",
          "161027.750000",
          "161027.750000",
          "161027.750000",
          "161027.750000",
          "161027.765000",
          "161027.765000",
          "161027.765000",
          "161027.765000",
          "161027.781000",
          "161027.781000",
          "161027.781000",
          "161027.781000",
          "161027.781000",
          "161027.781000",
          "161027.781000",
          "161027.781000",
          "161027.796000",
          "161027.796000",
          "161027.796000",
          "161027.796000",
          "161027.796000",
          "161127.750000",
          "161127.750000",
          "161127.750000",
          "161127.750000",
          "161127.750000",
          "161127.750000",
          "161127.765000",
          "161127.765000",
          "161127.765000",
          "161127.765000",
          "161127.765000",
          "161127.765000",
          "161127.765000",
          "161127.765000",
          "161127.781000",
          "161127.781000",
          "161127.781000",
          "161127.781000",
          "161127.781000",
          "161127.781000",
          "161127.781000",
          "161127.796000",
          "161127.796000",
          "161227.750000",
          "161227.750000",
          "161227.750000",
          "161227.750000",
          "161227.750000",
          "161227.765000",
          "161227.765000",
          "161227.765000",
          "161227.765000",
          "161227.765000",
          "161227.765000",
          "161227.765000",
          "161227.765000",
          "161227.781000",
          "161227.781000",
          "161227.781000",
          "161227.781000",
          "161227.781000",
          "161227.781000",
          "161227.796000",
          "161227.796000",
          "161227.796000",
          "161231.062000"
        ],
        "InstanceNumber": [
          1,
          2,
          3,
          4,
          5,
          6,
          7,
          8,
          9,
          10,
          11,
          12,
          13,
          14,
          15,
          16,
          17,
          18,
          19,
          20,
          21,
          22,
          23,
          24,
          25,
          26,
          27,
          28,
          29,
          30,
          31,
          32,
          33,
          34,
          35,
          36,
          37,
          38,
          39,
          40,
          41,
          42,
          43,
          44,
          45,
          46,
          47,
          48,
          49,
          50,
          51,
          52,
          53,
          54,
          55,
          56,
          57,
          58,
          59,
          60,
          61,
          62,
          63,
          64,
          65,
          66,
          67,
          68,
          69,
          70,
          71,
          72,
          73,
          74,
          75,
          76,
          77,
          78,
          79,
          80,
          81,
          82,
          83,
          84,
          85,
          86,
          87,
          88,
          89,
          90,
          91,
          92,
          93,
          94,
          95,
          96,
          97,
          98,
          99,
          100,
          101,
          102,
          103,
          104,
          105,
          106,
          107,
          108,
          109,
          110,
          111,
          112,
          113,
          114,
          115,
          116,
          117,
          118,
          119,
          120,
          121,
          122,
          123,
          124,
          125,
          126,
          127,
          128,
          129,
          130,
          131,
          132,
          133,
          134,
          135,
          136,
          137,
          138,
          139,
          140,
          141,
          142,
          143,
          144,
          145,
          146,
          147,
          148,
          149,
          150,
          151,
          152,
          153,
          154,
          155,
          156,
          157,
          158,
          159,
          160,
          161,
          162,
          163,
          164,
          165,
          166,
          167,
          168,
          169,
          170,
