{
  "aor": 0.0010837499999999999,
  "aqi": 0.013736550462962963,
  "bids_meta": {
    "AcquisitionMatrixPE": 188,
    "AcquisitionNumber": 1,
    "AcquisitionTime": "15:30:53.477500",
    "BandwidthPerPixelPhaseEncode": 19.46,
    "BaseResolution": 188,
    "ConversionSoftware": "dcm2niix",
    "ConversionSoftwareVersion": "v1.0.20180606 GCC4.8.5",
    "DelayTime": 1.2,
    "DerivedVendorReportedEchoSpacing": 0.000820013,
    "DeviceSerialNumber": "18930",
    "DwellTime": 1.9e-06,
    "EchoTime": 0.02,
    "EffectiveEchoSpacing": 0.000273338,
    "FlipAngle": 80,
    "ImageComments": "Unaliased_MB2_PE2",
    "ImageOrientationPatientDICOM": [
      0.997821,
      0.028021,
      -0.0597332,
      -0.06312,
      0.14179,
      -0.987882
    ],
    "ImageType": [
      "ORIGINAL",
      "PRIMARY",
      "M",
      "MB",
      "ND",
      "MOSAIC"
    ],
    "InPlanePhaseEncodingDirectionDICOM": "COL",
    "InstitutionAddress": "Oxfordlaan_55_Maastricht_Limburg_NL_6229_EV",
    "InstitutionName": "Scannexus",
    "InstitutionalDepartmentName": "MRI_7T",
    "MRAcquisitionType": "2D",
    "MagneticFieldStrength": 6.98,
    "Manufacturer": "Siemens",
    "ManufacturersModelName": "Investigational_Device_7T",
    "Modality": "MR",
    "MultibandAccelerationFactor": 2,
    "ParallelReductionFactorInPlane": 3,
    "PartialFourier": 0.75,
    "PatientPosition": "HFS",
    "PercentPhaseFOV": 100,
    "PhaseEncodingDirection": "j",
    "PhaseEncodingSteps": 141,
    "PhaseResolution": 1,
    "PixelBandwidth": 1400,
    "ProcedureStepDescription": "FeDem_Faruk",
    "ProtocolName": "cmrr_mbep2d_bold_AP_run4",
    "PulseSequenceDetails": "%CustomerSeq%_cmrr_mbep2d_bold",
    "ReceiveCoilName": "32Ch_Head_7T",
    "ReconMatrixPE": 188,
    "RepetitionTime": 2.6,
    "SAR": 0.0930686,
    "ScanOptions": "PFP_FS",
    "ScanningSequence": "EP",
    "SequenceName": "epfid2d1_188",
    "SequenceVariant": "SK_SS",
    "SeriesDescription": "cmrr_mbep2d_bold_AP_run4",
    "SeriesNumber": 13,
    "ShimSetting": [
      100,
      -161,
      486,
      430,
      -28,
      -229,
      -278,
      176
    ],
    "SliceThickness": 1.1,
    "SliceTiming": [
      0,
      0.735,
      0.0625,
      0.795,
      0.1225,
      0.855,
      0.185,
      0.9175,
      0.245,
      0.9775,
      0.305,
      1.04,
      0.3675,
      1.1,
      0.4275,
      1.1625,
      0.49,
      1.2225,
      0.55,
      1.2825,
      0.6125,
      1.345,
      0.6725,
      0,
      0.735,
      0.0625,
      0.795,
      0.1225,
      0.855,
      0.185,
      0.9175,
      0.245,
      0.9775,
      0.305,
      1.04,
      0.3675,
      1.1,
      0.4275,
      1.1625,
      0.49,
      1.2225,
      0.55,
      1.2825,
      0.6125,
      1.345,
      0.6725
    ],
    "SoftwareVersions": "syngo_MR_B17",
    "SpacingBetweenSlices": 1.1,
    "StationName": "MRC18930",
    "TaskName": "auditory",
    "TotalReadoutTime": 0.0511141,
    "TxRefAmp": 245,
    "dataset": "ds001942",
    "dcmmeta_affine": [
      [
        -1.0933570861816406,
        -0.06916341930627823,
        0.021133068948984146,
        104.83399200439453
      ],
      [
        -0.030703885480761528,
        0.1553657054901123,
        -1.088449239730835,
        33.75456619262695
      ],
      [
        -0.06545233726501465,
        1.0824668407440186,
        0.15757465362548828,
        -118.5897445678711
      ],
      [
        0.0,
        0.0,
        0.0,
        1.0
      ]
    ],
    "dcmmeta_reorient_transform": [
      [
        0.0,
        -1.0,
        0.0,
        187.0
      ],
      [
        1.0,
        0.0,
        0.0,
        0.0
      ],
      [
        0.0,
        0.0,
        1.0,
        0.0
      ],
      [
        0.0,
        0.0,
        0.0,
        1.0
      ]
    ],
    "dcmmeta_shape": [
      188,
      188,
      46,
      216
    ],
    "dcmmeta_slice_dim": 2,
    "dcmmeta_version": 0.6,
    "global": {
      "const": {
        "AcquisitionMatrix": [
          188,
          0,
          0,
          188
        ],
        "AngioFlag": "N",
        "BitsAllocated": 16,
        "BitsStored": 12,
        "Columns": 1316,
        "EchoNumbers": 1,
        "EchoTime": 20.0,
        "EchoTrainLength": 1,
        "FlipAngle": 80.0,
        "HighBit": 11,
        "ImageOrientationPatient": [
          0.99782100966385,
          0.02802101971216,
          -0.0597331995436,
          -0.0631200106673,
          0.1417900610645,
          -0.9878823021174
        ],
        "ImagePositionPatient": [
          -669.54567872493,
          -167.7512079547,
          731.25795682871
        ],
        "ImageType": [
          "ORIGINAL",
          "PRIMARY",
          "M",
          "MB",
          "ND",
          "MOSAIC"
        ],
        "ImagedNucleus": "1H",
        "ImagingFrequency": 297.205486,
        "InPlanePhaseEncodingDirection": "COL",
        "LargestImagePixelValue": 4095,
        "MRAcquisitionType": "2D",
        "MagneticFieldStrength": 6.98,
        "Manufacturer": "SIEMENS",
        "ManufacturerModelName": "Investigational_Device_7T",
        "Modality": "MR",
        "NumberOfAverages": 1.0,
        "NumberOfPhaseEncodingSteps": 141,
        "PercentPhaseFieldOfView": 100.0,
        "PercentSampling": 100.0,
        "PerformedProcedureStepStartTime": "142429.390000",
        "PhotometricInterpretation": "MONOCHROME2",
        "PixelBandwidth": 1400.0,
        "PixelRepresentation": 0,
        "PixelSpacing": [
          1.0957447290421,
          1.0957447290421
        ],
        "ProtocolName": "cmrr_mbep2d_bold_AP_run4",
        "RepetitionTime": 2600.0,
        "Rows": 1316,
        "SAR": 0.09306857591996,
        "SamplesPerPixel": 1,
        "ScanOptions": [
          "PFP",
          "FS"
        ],
        "ScanningSequence": "EP",
        "SequenceName": "epfid2d1_188",
        "SequenceVariant": [
          "SK",
          "SS"
        ],
        "SeriesDescription": "cmrr_mbep2d_bold_AP_run4",
        "SeriesNumber": 13,
        "SeriesTime": "153147.750000",
        "SliceLocation": -48.374043508033,
        "SliceThickness": 1.1000000238419,
        "SmallestImagePixelValue": 0,
        "SoftwareVersions": "syngo MR B17",
        "SpacingBetweenSlices": 1.0999991725909,
        "SpecificCharacterSet": "ISO_IR 100",
        "StudyID": "1",
        "StudyTime": "142429.359000",
        "TransmitCoilName": "32Ch_Head_7T",
        "VariableFlipAngleFlag": "N",
        "WindowCenterWidthExplanation": "Algo1",
        "dBdt": 0.0
      },
      "slices": {}
    },
    "modality": "bold",
    "run_id": 4,
    "session_id": "SES04",
    "subject_id": "S11",
    "task_id": "auditory",
    "time": {
      "samples": {
        "AcquisitionNumber": [
          1,
          2,
          3,
          4,
          5,
          6,
          7,
          8,
          9,
          10,
          11,
          12,
          13,
          14,
          15,
          16,
          17,
          18,
          19,
          20,
          21,
          22,
          23,
          24,
          25,
          26,
          27,
          28,
          29,
          30,
          31,
          32,
          33,
          34,
          35,
          36,
          37,
          38,
          39,
          40,
          41,
          42,
          43,
          44,
          45,
          46,
          47,
          48,
          49,
          50,
          51,
          52,
          53,
          54,
          55,
          56,
          57,
          58,
          59,
          60,
          61,
          62,
          63,
          64,
          65,
          66,
          67,
          68,
          69,
          70,
          71,
          72,
          73,
          74,
          75,
          76,
          77,
          78,
          79,
          80,
          81,
          82,
          83,
          84,
          85,
          86,
          87,
          88,
          89,
          90,
          91,
          92,
          93,
          94,
          95,
          96,
          97,
          98,
          99,
          100,
          101,
          102,
          103,
          104,
          105,
          106,
          107,
          108,
          109,
          110,
          111,
          112,
          113,
          114,
          115,
          116,
          117,
          118,
          119,
          120,
          121,
          122,
          123,
          124,
          125,
          126,
          127,
          128,
          129,
          130,
          131,
          132,
          133,
          134,
          135,
          136,
          137,
          138,
          139,
          140,
          141,
          142,
          143,
          144,
          145,
          146,
          147,
          148,
          149,
          150,
          151,
          152,
          153,
          154,
          155,
          156,
          157,
          158,
          159,
          160,
          161,
          162,
          163,
          164,
          165,
          166,
          167,
          168,
          169,
          170,
          171,
          172,
          173,
          174,
          175,
          176,
          177,
          178,
          179,
          180,
          181,
          182,
          183,
          184,
          185,
          186,
          187,
          188,
          189,
          190,
          191,
          192,
          193,
          194,
          195,
          196,
          197,
          198,
          199,
          200,
          201,
          202,
          203,
          204,
          205,
          206,
          207,
          208,
          209,
          210,
          211,
          212,
          213,
          214,
          215,
          216
        ],
        "AcquisitionTime": [
          "153053.477500",
          "153056.087500",
          "153058.700000",
          "153101.310000",
          "153103.920000",
          "153106.530000",
          "153109.140000",
          "153111.750000",
          "153114.362500",
          "153116.972500",
          "153119.582500",
          "153122.192500",
          "153124.802500",
          "153127.415000",
          "153130.025000",
          "153132.635000",
          "153135.245000",
          "153137.855000",
          "153140.465000",
          "153143.077500",
          "153145.687500",
          "153148.297500",
          "153150.907500",
          "153153.517500",
          "153156.127500",
          "153158.740000",
          "153201.350000",
          "153203.960000",
          "153206.570000",
          "153209.180000",
          "153211.792500",
          "153214.402500",
          "153217.012500",
          "153219.622500",
          "153222.232500",
          "153224.842500",
          "153227.455000",
          "153230.065000",
          "153232.675000",
          "153235.285000",
          "153237.895000",
          "153240.505000",
          "153243.117500",
          "153245.727500",
          "153248.337500",
          "153250.947500",
          "153253.557500",
          "153256.170000",
          "153258.780000",
          "153301.390000",
          "153304.000000",
          "153306.610000",
          "153309.220000",
          "153311.832500",
          "153314.442500",
          "153317.052500",
          "153319.662500",
          "153322.272500",
          "153324.882500",
          "153327.495000",
          "153330.105000",
          "153332.715000",
          "153335.325000",
          "153337.935000",
          "153340.547500",
          "153343.157500",
          "153345.767500",
          "153348.377500",
          "153350.987500",
          "153353.597500",
          "153356.210000",
          "153358.820000",
          "153401.430000",
          "153404.040000",
          "153406.650000",
          "153409.260000",
          "153411.872500",
          "153414.482500",
          "153417.092500",
          "153419.702500",
          "153422.312500",
          "153424.925000",
          "153427.535000",
          "153430.145000",
          "153432.755000",
          "153435.365000",
          "153437.975000",
          "153440.587500",
          "153443.197500",
          "153445.807500",
          "153448.417500",
          "153451.027500",
          "153453.637500",
          "153456.250000",
          "153458.860000",
          "153501.470000",
          "153504.080000",
          "153506.690000",
          "153509.302500",
          "153511.912500",
          "153514.522500",
          "153517.132500",
          "153519.742500",
          "153522.352500",
          "153524.965000",
          "153527.575000",
          "153530.185000",
          "153532.795000",
          "153535.405000",
          "153538.015000",
          "153540.627500",
          "153543.237500",
          "153545.847500",
          "153548.457500",
          "153551.067500",
          "153553.680000",
          "153556.290000",
          "153558.900000",
          "153601.510000",
          "153604.120000",
          "153606.730000",
          "153609.342500",
          "153611.952500",
          "153614.562500",
          "153617.172500",
          "153619.782500",
          "153622.392500",
          "153625.005000",
          "153627.615000",
          "153630.225000",
          "153632.835000",
          "153635.445000",
          "153638.057500",
          "153640.667500",
          "153643.277500",
          "153645.887500",
          "153648.497500",
          "153651.107500",
          "153653.720000",
          "153656.330000",
          "153658.940000",
          "153701.550000",
          "153704.160000",
          "153706.770000",
          "153709.382500",
          "153711.992500",
          "153714.602500",
          "153717.212500",
          "153719.822500",
          "153722.435000",
          "153725.045000",
          "153727.655000",
          "153730.265000",
          "153732.875000",
          "153735.485000",
          "153738.097500",
          "153740.707500",
          "153743.317500",
          "153745.927500",
          "153748.537500",
          "153751.147500",
          "153753.760000",
          "153756.370000",
          "153758.980000",
          "153801.590000",
          "153804.200000",
          "153806.812500",
          "153809.422500",
          "153812.032500",
          "153814.642500",
          "153817.252500",
          "153819.862500",
          "153822.475000",
          "153825.085000",
          "153827.695000",
          "153830.305000",
          "153832.915000",
          "153835.525000",
          "153838.137500",
          "153840.747500",
          "153843.357500",
          "153845.967500",
          "153848.577500",
          "153851.190000",
          "153853.800000",
          "153856.410000",
          "153859.020000",
          "153901.630000",
          "153904.240000",
          "153906.852500",
          "153909.462500",
          "153912.072500",
          "153914.682500",
          "153917.292500",
          "153919.902500",
          "153922.515000",
          "153925.125000",
          "153927.735000",
          "153930.345000",
          "153932.955000",
          "153935.567500",
          "153938.177500",
          "153940.787500",
          "153943.397500",
          "153946.007500",
          "153948.617500",
          "153951.230000",
          "153953.840000",
          "153956.450000",
          "153959.060000",
          "154001.670000",
          "154004.282500",
          "154006.892500",
          "154009.502500",
          "154012.112500",
          "154014.722500"
        ],
        "ContentTime": [
          "153147.750000",
          "153147.750000",
          "153147.765000",
          "153147.765000",
          "153147.765000",
          "153147.765000",
          "153147.765000",
          "153147.765000",
          "153147.765000",
          "153147.781000",
          "153147.781000",
          "153147.781000",
          "153147.796000",
          "153147.796000",
          "153147.796000",
          "153147.796000",
          "153147.796000",
          "153147.796000",
          "153147.796000",
          "153147.812000",
          "153247.750000",
          "153247.750000",
          "153247.750000",
          "153247.750000",
          "153247.750000",
          "153247.765000",
          "153247.765000",
          "153247.765000",
          "153247.765000",
          "153247.765000",
          "153247.765000",
          "153247.765000",
          "153247.781000",
          "153247.781000",
          "153247.781000",
          "153247.781000",
          "153247.781000",
          "153247.796000",
          "153247.796000",
          "153247.796000",
          "153247.796000",
          "153247.796000",
          "153247.796000",
          "153347.750000",
          "153347.750000",
          "153347.750000",
          "153347.750000",
          "153347.750000",
          "153347.750000",
          "153347.765000",
          "153347.765000",
          "153347.765000",
          "153347.765000",
          "153347.781000",
          "153347.781000",
          "153347.781000",
          "153347.781000",
          "153347.781000",
          "153347.781000",
          "153347.781000",
          "153347.796000",
          "153347.796000",
          "153347.796000",
          "153347.796000",
          "153347.796000",
          "153347.796000",
          "153447.750000",
          "153447.750000",
          "153447.750000",
          "153447.750000",
          "153447.750000",
          "153447.765000",
          "153447.765000",
          "153447.765000",
          "153447.765000",
          "153447.765000",
          "153447.765000",
          "153447.765000",
          "153447.765000",
          "153447.781000",
          "153447.781000",
          "153447.781000",
          "153447.781000",
          "153447.781000",
          "153447.781000",
          "153447.781000",
          "153447.796000",
          "153447.796000",
          "153447.796000",
          "153547.750000",
          "153547.750000",
          "153547.750000",
          "153547.750000",
          "153547.750000",
          "153547.750000",
          "153547.765000",
          "153547.765000",
          "153547.765000",
          "153547.765000",
          "153547.765000",
          "153547.765000",
          "153547.765000",
          "153547.781000",
          "153547.781000",
          "153547.781000",
          "153547.781000",
          "153547.781000",
          "153547.781000",
          "153547.781000",
          "153547.796000",
          "153547.796000",
          "153547.796000",
          "153647.750000",
          "153647.750000",
          "153647.750000",
          "153647.750000",
          "153647.750000",
          "153647.750000",
          "153647.765000",
          "153647.765000",
          "153647.765000",
          "153647.765000",
          "153647.765000",
          "153647.765000",
          "153647.765000",
          "153647.781000",
          "153647.781000",
          "153647.781000",
          "153647.796000",
          "153647.796000",
          "153647.796000",
          "153647.796000",
          "153647.796000",
          "153647.796000",
          "153647.812000",
          "153747.750000",
          "153747.750000",
          "153747.750000",
          "153747.750000",
          "153747.750000",
          "153747.750000",
          "153747.765000",
          "153747.765000",
          "153747.765000",
          "153747.765000",
          "153747.765000",
          "153747.781000",
          "153747.781000",
          "153747.781000",
          "153747.781000",
          "153747.781000",
          "153747.781000",
          "153747.781000",
          "153747.796000",
          "153747.796000",
          "153747.796000",
          "153747.796000",
          "153747.796000",
          "153827.750000",
          "153827.765000",
          "153827.765000",
          "153827.765000",
          "153827.765000",
          "153827.765000",
          "153827.765000",
          "153827.765000",
          "153827.781000",
          "153827.781000",
          "153827.781000",
          "153827.781000",
          "153827.781000",
          "153827.781000",
          "153827.781000",
          "153827.781000",
          "153927.750000",
          "153927.750000",
          "153927.750000",
          "153927.750000",
          "153927.750000",
          "153927.750000",
          "153927.765000",
          "153927.765000",
          "153927.765000",
          "153927.765000",
          "153927.765000",
          "153927.765000",
          "153927.765000",
          "153927.781000",
          "153927.781000",
          "153927.781000",
          "153927.781000",
          "153927.781000",
          "153927.781000",
          "153927.781000",
          "153927.796000",
          "153927.796000",
          "153927.796000",
          "154021.421000",
          "154021.421000",
          "154021.421000",
          "154021.437000",
          "154021.453000",
          "154021.453000",
          "154021.453000",
          "154021.453000",
          "154021.453000",
          "154021.453000",
          "154021.453000",
          "154021.468000",
          "154021.468000",
          "154021.468000",
          "154021.468000",
          "154021.468000",
          "154021.468000",
          "154021.468000",
          "154021.468000"
        ],
        "InstanceCreationTime": [
          "153147.750000",
          "153147.750000",
          "153147.765000",
          "153147.765000",
          "153147.765000",
          "153147.765000",
          "153147.765000",
          "153147.765000",
          "153147.765000",
          "153147.781000",
          "153147.781000",
          "153147.781000",
          "153147.796000",
          "153147.796000",
          "153147.796000",
          "153147.796000",
          "153147.796000",
          "153147.796000",
          "153147.796000",
          "153147.812000",
          "153247.750000",
          "153247.750000",
          "153247.750000",
          "153247.750000",
          "153247.750000",
          "153247.765000",
          "153247.765000",
          "153247.765000",
          "153247.765000",
          "153247.765000",
          "153247.765000",
          "153247.765000",
          "153247.781000",
          "153247.781000",
          "153247.781000",
          "153247.781000",
          "153247.781000",
          "153247.796000",
          "153247.796000",
          "153247.796000",
          "153247.796000",
          "153247.796000",
          "153247.796000",
          "153347.750000",
          "153347.750000",
          "153347.750000",
          "153347.750000",
          "153347.750000",
          "153347.750000",
          "153347.765000",
          "153347.765000",
          "153347.765000",
          "153347.765000",
          "153347.781000",
          "153347.781000",
          "153347.781000",
          "153347.781000",
          "153347.781000",
          "153347.781000",
          "153347.781000",
          "153347.796000",
          "153347.796000",
          "153347.796000",
          "153347.796000",
          "153347.796000",
          "153347.796000",
          "153447.750000",
          "153447.750000",
          "153447.750000",
          "153447.750000",
          "153447.750000",
          "153447.765000",
          "153447.765000",
          "153447.765000",
          "153447.765000",
          "153447.765000",
          "153447.765000",
          "153447.765000",
          "153447.765000",
          "153447.781000",
          "153447.781000",
          "153447.781000",
          "153447.781000",
          "153447.781000",
          "153447.781000",
          "153447.781000",
          "153447.796000",
          "153447.796000",
          "153447.796000",
          "153547.750000",
          "153547.750000",
          "153547.750000",
          "153547.750000",
          "153547.750000",
          "153547.750000",
          "153547.765000",
          "153547.765000",
          "153547.765000",
          "153547.765000",
          "153547.765000",
          "153547.765000",
          "153547.765000",
          "153547.781000",
          "153547.781000",
          "153547.781000",
          "153547.781000",
          "153547.781000",
          "153547.781000",
          "153547.781000",
          "153547.796000",
          "153547.796000",
          "153547.796000",
          "153647.750000",
          "153647.750000",
          "153647.750000",
          "153647.750000",
          "153647.750000",
          "153647.750000",
          "153647.765000",
          "153647.765000",
          "153647.765000",
          "153647.765000",
          "153647.765000",
          "153647.765000",
          "153647.765000",
          "153647.781000",
          "153647.781000",
          "153647.781000",
          "153647.796000",
          "153647.796000",
          "153647.796000",
          "153647.796000",
          "153647.796000",
          "153647.796000",
          "153647.812000",
          "153747.750000",
          "153747.750000",
          "153747.750000",
          "153747.750000",
          "153747.750000",
          "153747.750000",
          "153747.765000",
          "153747.765000",
          "153747.765000",
          "153747.765000",
          "153747.765000",
          "153747.781000",
          "153747.781000",
          "153747.781000",
          "153747.781000",
          "153747.781000",
          "153747.781000",
          "153747.781000",
          "153747.796000",
          "153747.796000",
          "153747.796000",
          "153747.796000",
          "153747.796000",
          "153827.750000",
          "153827.765000",
          "153827.765000",
          "153827.765000",
          "153827.765000",
          "153827.765000",
          "153827.765000",
          "153827.765000",
          "153827.781000",
          "153827.781000",
          "153827.781000",
          "153827.781000",
          "153827.781000",
          "153827.781000",
          "153827.781000",
          "153827.781000",
          "153927.750000",
          "153927.750000",
          "153927.750000",
          "153927.750000",
          "153927.750000",
          "153927.750000",
          "153927.765000",
          "153927.765000",
          "153927.765000",
          "153927.765000",
          "153927.765000",
          "153927.765000",
          "153927.765000",
          "153927.781000",
          "153927.781000",
          "153927.781000",
          "153927.781000",
          "153927.781000",
          "153927.781000",
          "153927.781000",
          "153927.796000",
          "153927.796000",
          "153927.796000",
          "154021.421000",
          "154021.421000",
          "154021.421000",
          "154021.437000",
          "154021.453000",
          "154021.453000",
          "154021.453000",
          "154021.453000",
          "154021.453000",
          "154021.453000",
          "154021.453000",
          "154021.468000",
          "154021.468000",
          "154021.468000",
          "154021.468000",
          "154021.468000",
          "154021.468000",
          "154021.468000",
          "154021.468000"
        ],
        "InstanceNumber": [
          1,
          2,
          3,
          4,
          5,
          6,
          7,
          8,
          9,
          10,
          11,
          12,
          13,
          14,
          15,
          16,
          17,
          18,
          19,
          20,
          21,
          22,
          23,
          24,
          25,
          26,
          27,
          28,
          29,
          30,
          31,
          32,
          33,
          34,
          35,
          36,
          37,
          38,
          39,
          40,
          41,
          42,
          43,
          44,
          45,
          46,
          47,
          48,
          49,
          50,
          51,
          52,
          53,
          54,
          55,
          56,
          57,
          58,
          59,
          60,
          61,
          62,
          63,
          64,
          65,
          66,
          67,
          68,
          69,
          70,
          71,
          72,
          73,
          74,
          75,
          76,
          77,
          78,
          79,
          80,
          81,
          82,
          83,
          84,
          85,
          86,
          87,
          88,
          89,
          90,
          91,
          92,
          93,
          94,
          95,
          96,
          97,
          98,
          99,
          100,
          101,
          102,
          103,
          104,
          105,
          106,
          107,
          108,
          109,
          110,
          111,
          112,
          113,
          114,
          115,
          116,
          117,
          118,
          119,
          120,
          121,
          122,
          123,
          124,
          125,
          126,
          127,
          128,
          129,
          130,
          131,
          132,
          133,
          134,
          135,
          136,
          137,
          138,
          139,
          140,
          141,
          142,
          143,
          144,
          145,
          146,
          147,
          148,
          149,
          150,
          151,
          152,
          153,
          154,
          155,
          156,
          157,
          158,
          159,
          160,
          161,
          162,
          163,
          164,
          165,
          166,
          167,
          168,
          169,
          170,
