{
  "aor": 0.0014546759259259259,
  "aqi": 0.01830534675925926,
  "bids_meta": {
    "AcquisitionMatrixPE": 188,
    "AcquisitionNumber": 1,
    "AcquisitionTime": "16:13:50.017500",
    "BandwidthPerPixelPhaseEncode": 19.46,
    "BaseResolution": 188,
    "ConversionSoftware": "dcm2niix",
    "ConversionSoftwareVersion": "v1.0.20180606 GCC4.8.5",
    "DelayTime": 1.2,
    "DerivedVendorReportedEchoSpacing": 0.000820013,
    "DeviceSerialNumber": "18930",
    "DwellTime": 1.9e-06,
    "EchoTime": 0.02,
    "EffectiveEchoSpacing": 0.000273338,
    "FlipAngle": 80,
    "ImageComments": "Unaliased_MB2_PE2",
    "ImageOrientationPatientDICOM": [
      0.997821,
      0.028021,
      -0.0597332,
      -0.06312,
      0.14179,
      -0.987882
    ],
    "ImageType": [
      "ORIGINAL",
      "PRIMARY",
      "M",
      "MB",
      "ND",
      "MOSAIC"
    ],
    "InPlanePhaseEncodingDirectionDICOM": "COL",
    "InstitutionAddress": "Oxfordlaan_55_Maastricht_Limburg_NL_6229_EV",
    "InstitutionName": "Scannexus",
    "InstitutionalDepartmentName": "MRI_7T",
    "MRAcquisitionType": "2D",
    "MagneticFieldStrength": 6.98,
    "Manufacturer": "Siemens",
    "ManufacturersModelName": "Investigational_Device_7T",
    "Modality": "MR",
    "MultibandAccelerationFactor": 2,
    "ParallelReductionFactorInPlane": 3,
    "PartialFourier": 0.75,
    "PatientPosition": "HFS",
    "PercentPhaseFOV": 100,
    "PhaseEncodingDirection": "j",
    "PhaseEncodingSteps": 141,
    "PhaseResolution": 1,
    "PixelBandwidth": 1400,
    "ProcedureStepDescription": "FeDem_Faruk",
    "ProtocolName": "cmrr_mbep2d_bold_AP_run8",
    "PulseSequenceDetails": "%CustomerSeq%_cmrr_mbep2d_bold",
    "ReceiveCoilName": "32Ch_Head_7T",
    "ReconMatrixPE": 188,
    "RepetitionTime": 2.6,
    "SAR": 0.0930207,
    "ScanOptions": "PFP_FS",
    "ScanningSequence": "EP",
    "SequenceName": "epfid2d1_188",
    "SequenceVariant": "SK_SS",
    "SeriesDescription": "cmrr_mbep2d_bold_AP_run8",
    "SeriesNumber": 17,
    "ShimSetting": [
      100,
      -161,
      486,
      430,
      -28,
      -229,
      -278,
      176
    ],
    "SliceThickness": 1.1,
    "SliceTiming": [
      0,
      0.735,
      0.0625,
      0.795,
      0.1225,
      0.8575,
      0.185,
      0.9175,
      0.245,
      0.98,
      0.3075,
      1.04,
      0.3675,
      1.1,
      0.43,
      1.1625,
      0.49,
      1.2225,
      0.55,
      1.285,
      0.6125,
      1.345,
      0.6725,
      0,
      0.735,
      0.0625,
      0.795,
      0.1225,
      0.8575,
      0.185,
      0.9175,
      0.245,
      0.98,
      0.3075,
      1.04,
      0.3675,
      1.1,
      0.43,
      1.1625,
      0.49,
      1.2225,
      0.55,
      1.285,
      0.6125,
      1.345,
      0.6725
    ],
    "SoftwareVersions": "syngo_MR_B17",
    "SpacingBetweenSlices": 1.1,
    "StationName": "MRC18930",
    "TaskName": "auditory",
    "TotalReadoutTime": 0.0511141,
    "TxRefAmp": 245,
    "dataset": "ds001942",
    "dcmmeta_affine": [
      [
        -1.0933570861816406,
        -0.06916341930627823,
        0.021133068948984146,
        104.83399200439453
      ],
      [
        -0.030703885480761528,
        0.1553657054901123,
        -1.088449239730835,
        33.75456619262695
      ],
      [
        -0.06545233726501465,
        1.0824668407440186,
        0.15757465362548828,
        -118.5897445678711
      ],
      [
        0.0,
        0.0,
        0.0,
        1.0
      ]
    ],
    "dcmmeta_reorient_transform": [
      [
        0.0,
        -1.0,
        0.0,
        187.0
      ],
      [
        1.0,
        0.0,
        0.0,
        0.0
      ],
      [
        0.0,
        0.0,
        1.0,
        0.0
      ],
      [
        0.0,
        0.0,
        0.0,
        1.0
      ]
    ],
    "dcmmeta_shape": [
      188,
      188,
      46,
      216
    ],
    "dcmmeta_slice_dim": 2,
    "dcmmeta_version": 0.6,
    "global": {
      "const": {
        "AcquisitionMatrix": [
          188,
          0,
          0,
          188
        ],
        "AngioFlag": "N",
        "BitsAllocated": 16,
        "BitsStored": 12,
        "Columns": 1316,
        "EchoNumbers": 1,
        "EchoTime": 20.0,
        "EchoTrainLength": 1,
        "FlipAngle": 80.0,
        "HighBit": 11,
        "ImageOrientationPatient": [
          0.99782100966385,
          0.02802101971216,
          -0.0597331995436,
          -0.0631200106673,
          0.1417900610645,
          -0.9878823021174
        ],
        "ImagePositionPatient": [
          -669.54567872493,
          -167.7512079547,
          731.25795682871
        ],
        "ImageType": [
          "ORIGINAL",
          "PRIMARY",
          "M",
          "MB",
          "ND",
          "MOSAIC"
        ],
        "ImagedNucleus": "1H",
        "ImagingFrequency": 297.205495,
        "InPlanePhaseEncodingDirection": "COL",
        "LargestImagePixelValue": 4095,
        "MRAcquisitionType": "2D",
        "MagneticFieldStrength": 6.98,
        "Manufacturer": "SIEMENS",
        "ManufacturerModelName": "Investigational_Device_7T",
        "Modality": "MR",
        "NumberOfAverages": 1.0,
        "NumberOfPhaseEncodingSteps": 141,
        "PercentPhaseFieldOfView": 100.0,
        "PercentSampling": 100.0,
        "PerformedProcedureStepStartTime": "142429.390000",
        "PhotometricInterpretation": "MONOCHROME2",
        "PixelBandwidth": 1400.0,
        "PixelRepresentation": 0,
        "PixelSpacing": [
          1.0957447290421,
          1.0957447290421
        ],
        "ProtocolName": "cmrr_mbep2d_bold_AP_run8",
        "RepetitionTime": 2600.0,
        "Rows": 1316,
        "SAR": 0.0930206774339,
        "SamplesPerPixel": 1,
        "ScanOptions": [
          "PFP",
          "FS"
        ],
        "ScanningSequence": "EP",
        "SequenceName": "epfid2d1_188",
        "SequenceVariant": [
          "SK",
          "SS"
        ],
        "SeriesDescription": "cmrr_mbep2d_bold_AP_run8",
        "SeriesNumber": 17,
        "SeriesTime": "161453.093000",
        "SliceLocation": -48.374043508033,
        "SliceThickness": 1.1000000238419,
        "SmallestImagePixelValue": 0,
        "SoftwareVersions": "syngo MR B17",
        "SpacingBetweenSlices": 1.0999991725909,
        "SpecificCharacterSet": "ISO_IR 100",
        "StudyID": "1",
        "StudyTime": "142429.359000",
        "TransmitCoilName": "32Ch_Head_7T",
        "VariableFlipAngleFlag": "N",
        "WindowCenterWidthExplanation": "Algo1",
        "dBdt": 0.0
      },
      "slices": {}
    },
    "modality": "bold",
    "run_id": 8,
    "session_id": "SES04",
    "subject_id": "S11",
    "task_id": "auditory",
    "time": {
      "samples": {
        "AcquisitionNumber": [
          1,
          2,
          3,
          4,
          5,
          6,
          7,
          8,
          9,
          10,
          11,
          12,
          13,
          14,
          15,
          16,
          17,
          18,
          19,
          20,
          21,
          22,
          23,
          24,
          25,
          26,
          27,
          28,
          29,
          30,
          31,
          32,
          33,
          34,
          35,
          36,
          37,
          38,
          39,
          40,
          41,
          42,
          43,
          44,
          45,
          46,
          47,
          48,
          49,
          50,
          51,
          52,
          53,
          54,
          55,
          56,
          57,
          58,
          59,
          60,
          61,
          62,
          63,
          64,
          65,
          66,
          67,
          68,
          69,
          70,
          71,
          72,
          73,
          74,
          75,
          76,
          77,
          78,
          79,
          80,
          81,
          82,
          83,
          84,
          85,
          86,
          87,
          88,
          89,
          90,
          91,
          92,
          93,
          94,
          95,
          96,
          97,
          98,
          99,
          100,
          101,
          102,
          103,
          104,
          105,
          106,
          107,
          108,
          109,
          110,
          111,
          112,
          113,
          114,
          115,
          116,
          117,
          118,
          119,
          120,
          121,
          122,
          123,
          124,
          125,
          126,
          127,
          128,
          129,
          130,
          131,
          132,
          133,
          134,
          135,
          136,
          137,
          138,
          139,
          140,
          141,
          142,
          143,
          144,
          145,
          146,
          147,
          148,
          149,
          150,
          151,
          152,
          153,
          154,
          155,
          156,
          157,
          158,
          159,
          160,
          161,
          162,
          163,
          164,
          165,
          166,
          167,
          168,
          169,
          170,
          171,
          172,
          173,
          174,
          175,
          176,
          177,
          178,
          179,
          180,
          181,
          182,
          183,
          184,
          185,
          186,
          187,
          188,
          189,
          190,
          191,
          192,
          193,
          194,
          195,
          196,
          197,
          198,
          199,
          200,
          201,
          202,
          203,
          204,
          205,
          206,
          207,
          208,
          209,
          210,
          211,
          212,
          213,
          214,
          215,
          216
        ],
        "AcquisitionTime": [
          "161350.017500",
          "161352.630000",
          "161355.240000",
          "161357.850000",
          "161400.460000",
          "161403.070000",
          "161405.682500",
          "161408.292500",
          "161410.902500",
          "161413.512500",
          "161416.122500",
          "161418.732500",
          "161421.345000",
          "161423.955000",
          "161426.565000",
          "161429.175000",
          "161431.785000",
          "161434.395000",
          "161437.007500",
          "161439.617500",
          "161442.227500",
          "161444.837500",
          "161447.447500",
          "161450.060000",
          "161452.670000",
          "161455.280000",
          "161457.890000",
          "161500.500000",
          "161503.110000",
          "161505.722500",
          "161508.332500",
          "161510.942500",
          "161513.552500",
          "161516.162500",
          "161518.772500",
          "161521.385000",
          "161523.995000",
          "161526.605000",
          "161529.215000",
          "161531.825000",
          "161534.437500",
          "161537.047500",
          "161539.657500",
          "161542.267500",
          "161544.877500",
          "161547.487500",
          "161550.100000",
          "161552.710000",
          "161555.320000",
          "161557.930000",
          "161600.540000",
          "161603.150000",
          "161605.762500",
          "161608.372500",
          "161610.982500",
          "161613.592500",
          "161616.202500",
          "161618.815000",
          "161621.425000",
          "161624.035000",
          "161626.645000",
          "161629.255000",
          "161631.865000",
          "161634.477500",
          "161637.087500",
          "161639.697500",
          "161642.307500",
          "161644.917500",
          "161647.530000",
          "161650.140000",
          "161652.750000",
          "161655.360000",
          "161657.970000",
          "161700.580000",
          "161703.192500",
          "161705.802500",
          "161708.412500",
          "161711.022500",
          "161713.632500",
          "161716.242500",
          "161718.855000",
          "161721.465000",
          "161724.075000",
          "161726.685000",
          "161729.295000",
          "161731.907500",
          "161734.517500",
          "161737.127500",
          "161739.737500",
          "161742.347500",
          "161744.957500",
          "161747.570000",
          "161750.180000",
          "161752.790000",
          "161755.400000",
          "161758.010000",
          "161800.620000",
          "161803.232500",
          "161805.842500",
          "161808.452500",
          "161811.062500",
          "161813.672500",
          "161816.285000",
          "161818.895000",
          "161821.505000",
          "161824.115000",
          "161826.725000",
          "161829.335000",
          "161831.947500",
          "161834.557500",
          "161837.167500",
          "161839.777500",
          "161842.387500",
          "161844.997500",
          "161847.610000",
          "161850.220000",
          "161852.830000",
          "161855.440000",
          "161858.050000",
          "161900.662500",
          "161903.272500",
          "161905.882500",
          "161908.492500",
          "161911.102500",
          "161913.712500",
          "161916.325000",
          "161918.935000",
          "161921.545000",
          "161924.155000",
          "161926.765000",
          "161929.375000",
          "161931.987500",
          "161934.597500",
          "161937.207500",
          "161939.817500",
          "161942.427500",
          "161945.040000",
          "161947.650000",
          "161950.260000",
          "161952.870000",
          "161955.480000",
          "161958.090000",
          "162000.702500",
          "162003.312500",
          "162005.922500",
          "162008.532500",
          "162011.142500",
          "162013.752500",
          "162016.365000",
          "162018.975000",
          "162021.585000",
          "162024.195000",
          "162026.805000",
          "162029.417500",
          "162032.027500",
          "162034.637500",
          "162037.247500",
          "162039.857500",
          "162042.467500",
          "162045.080000",
          "162047.690000",
          "162050.300000",
          "162052.910000",
          "162055.520000",
          "162058.130000",
          "162100.742500",
          "162103.352500",
          "162105.962500",
          "162108.572500",
          "162111.182500",
          "162113.795000",
          "162116.405000",
          "162119.015000",
          "162121.625000",
          "162124.235000",
          "162126.845000",
          "162129.457500",
          "162132.067500",
          "162134.677500",
          "162137.287500",
          "162139.897500",
          "162142.507500",
          "162145.120000",
          "162147.730000",
          "162150.340000",
          "162152.950000",
          "162155.560000",
          "162158.172500",
          "162200.782500",
          "162203.392500",
          "162206.002500",
          "162208.612500",
          "162211.222500",
          "162213.835000",
          "162216.445000",
          "162219.055000",
          "162221.665000",
          "162224.275000",
          "162226.885000",
          "162229.497500",
          "162232.107500",
          "162234.717500",
          "162237.327500",
          "162239.937500",
          "162242.550000",
          "162245.160000",
          "162247.770000",
          "162250.380000",
          "162252.990000",
          "162255.600000",
          "162258.212500",
          "162300.822500",
          "162303.432500",
          "162306.042500",
          "162308.652500",
          "162311.262500"
        ],
        "ContentTime": [
          "161453.093000",
          "161453.109000",
          "161453.109000",
          "161453.109000",
          "161453.109000",
          "161453.125000",
          "161453.125000",
          "161453.125000",
          "161453.125000",
          "161453.125000",
          "161453.125000",
          "161453.125000",
          "161453.125000",
          "161453.140000",
          "161453.140000",
          "161453.140000",
          "161453.140000",
          "161453.140000",
          "161453.140000",
          "161453.140000",
          "161453.156000",
          "161453.156000",
          "161453.156000",
          "161553.093000",
          "161553.093000",
          "161553.093000",
          "161553.093000",
          "161553.093000",
          "161553.093000",
          "161553.109000",
          "161553.109000",
          "161553.109000",
          "161553.109000",
          "161553.109000",
          "161553.109000",
          "161553.125000",
          "161553.125000",
          "161553.125000",
          "161553.125000",
          "161553.125000",
          "161553.125000",
          "161553.125000",
          "161553.140000",
          "161553.140000",
          "161553.140000",
          "161553.140000",
          "161653.093000",
          "161653.093000",
          "161653.093000",
          "161653.093000",
          "161653.093000",
          "161653.093000",
          "161653.109000",
          "161653.109000",
          "161653.109000",
          "161653.109000",
          "161653.109000",
          "161653.109000",
          "161653.109000",
          "161653.125000",
          "161653.125000",
          "161653.125000",
          "161653.125000",
          "161653.125000",
          "161653.125000",
          "161653.125000",
          "161653.125000",
          "161653.140000",
          "161653.140000",
          "161753.093000",
          "161753.093000",
          "161753.093000",
          "161753.093000",
          "161753.093000",
          "161753.109000",
          "161753.109000",
          "161753.109000",
          "161753.109000",
          "161753.109000",
          "161753.109000",
          "161753.109000",
          "161753.109000",
          "161753.125000",
          "161753.125000",
          "161753.125000",
          "161753.125000",
          "161753.125000",
          "161753.125000",
          "161753.125000",
          "161753.125000",
          "161753.140000",
          "161753.140000",
          "161813.093000",
          "161813.093000",
          "161813.093000",
          "161813.093000",
          "161813.093000",
          "161813.093000",
          "161813.109000",
          "161813.109000",
          "161913.093000",
          "161913.093000",
          "161913.093000",
          "161913.093000",
          "161913.093000",
          "161913.109000",
          "161913.109000",
          "161913.109000",
          "161913.109000",
          "161913.125000",
          "161913.125000",
          "161913.125000",
          "161913.125000",
          "161913.125000",
          "161913.125000",
          "161913.125000",
          "161913.140000",
          "161913.140000",
          "161913.140000",
          "161913.140000",
          "161913.140000",
          "161913.140000",
          "161913.140000",
          "162013.093000",
          "162013.093000",
          "162013.093000",
          "162013.093000",
          "162013.093000",
          "162013.093000",
          "162013.109000",
          "162013.109000",
          "162013.109000",
          "162013.109000",
          "162013.109000",
          "162013.109000",
          "162013.109000",
          "162013.125000",
          "162013.125000",
          "162013.125000",
          "162013.125000",
          "162013.125000",
          "162013.125000",
          "162013.125000",
          "162013.125000",
          "162013.140000",
          "162013.140000",
          "162113.093000",
          "162113.093000",
          "162113.093000",
          "162113.093000",
          "162113.093000",
          "162113.093000",
          "162113.109000",
          "162113.109000",
          "162113.109000",
          "162113.109000",
          "162113.109000",
          "162113.109000",
          "162113.109000",
          "162113.125000",
          "162113.125000",
          "162113.125000",
          "162113.125000",
          "162113.125000",
          "162113.125000",
          "162113.125000",
          "162113.125000",
          "162113.140000",
          "162113.140000",
          "162213.093000",
          "162213.093000",
          "162213.093000",
          "162213.093000",
          "162213.093000",
          "162213.093000",
          "162213.109000",
          "162213.109000",
          "162213.109000",
          "162213.109000",
          "162213.109000",
          "162213.125000",
          "162213.125000",
          "162213.125000",
          "162213.125000",
          "162213.125000",
          "162213.125000",
          "162213.125000",
          "162213.140000",
          "162213.140000",
          "162213.140000",
          "162213.140000",
          "162213.140000",
          "162313.093000",
          "162313.093000",
          "162313.093000",
          "162313.093000",
          "162313.093000",
          "162313.093000",
          "162313.109000",
          "162313.109000",
          "162313.109000",
          "162313.109000",
          "162313.109000",
          "162313.109000",
          "162313.109000",
          "162313.109000",
          "162313.125000",
          "162313.125000",
          "162313.140000",
          "162313.140000",
          "162313.140000",
          "162313.140000",
          "162313.140000",
          "162313.156000",
          "162313.156000",
          "162318.843000"
        ],
        "InstanceCreationTime": [
          "161453.093000",
          "161453.109000",
          "161453.109000",
          "161453.109000",
          "161453.109000",
          "161453.125000",
          "161453.125000",
          "161453.125000",
          "161453.125000",
          "161453.125000",
          "161453.125000",
          "161453.125000",
          "161453.125000",
          "161453.140000",
          "161453.140000",
          "161453.140000",
          "161453.140000",
          "161453.140000",
          "161453.140000",
          "161453.140000",
          "161453.156000",
          "161453.156000",
          "161453.156000",
          "161553.093000",
          "161553.093000",
          "161553.093000",
          "161553.093000",
          "161553.093000",
          "161553.093000",
          "161553.109000",
          "161553.109000",
          "161553.109000",
          "161553.109000",
          "161553.109000",
          "161553.109000",
          "161553.125000",
          "161553.125000",
          "161553.125000",
          "161553.125000",
          "161553.125000",
          "161553.125000",
          "161553.125000",
          "161553.140000",
          "161553.140000",
          "161553.140000",
          "161553.140000",
          "161653.093000",
          "161653.093000",
          "161653.093000",
          "161653.093000",
          "161653.093000",
          "161653.093000",
          "161653.109000",
          "161653.109000",
          "161653.109000",
          "161653.109000",
          "161653.109000",
          "161653.109000",
          "161653.109000",
          "161653.125000",
          "161653.125000",
          "161653.125000",
          "161653.125000",
          "161653.125000",
          "161653.125000",
          "161653.125000",
          "161653.125000",
          "161653.140000",
          "161653.140000",
          "161753.093000",
          "161753.093000",
          "161753.093000",
          "161753.093000",
          "161753.093000",
          "161753.109000",
          "161753.109000",
          "161753.109000",
          "161753.109000",
          "161753.109000",
          "161753.109000",
          "161753.109000",
          "161753.109000",
          "161753.125000",
          "161753.125000",
          "161753.125000",
          "161753.125000",
          "161753.125000",
          "161753.125000",
          "161753.125000",
          "161753.125000",
          "161753.140000",
          "161753.140000",
          "161813.093000",
          "161813.093000",
          "161813.093000",
          "161813.093000",
          "161813.093000",
          "161813.093000",
          "161813.109000",
          "161813.109000",
          "161913.093000",
          "161913.093000",
          "161913.093000",
          "161913.093000",
          "161913.093000",
          "161913.109000",
          "161913.109000",
          "161913.109000",
          "161913.109000",
          "161913.125000",
          "161913.125000",
          "161913.125000",
          "161913.125000",
          "161913.125000",
          "161913.125000",
          "161913.125000",
          "161913.140000",
          "161913.140000",
          "161913.140000",
          "161913.140000",
          "161913.140000",
          "161913.140000",
          "161913.140000",
          "162013.093000",
          "162013.093000",
          "162013.093000",
          "162013.093000",
          "162013.093000",
          "162013.093000",
          "162013.109000",
          "162013.109000",
          "162013.109000",
          "162013.109000",
          "162013.109000",
          "162013.109000",
          "162013.109000",
          "162013.125000",
          "162013.125000",
          "162013.125000",
          "162013.125000",
          "162013.125000",
          "162013.125000",
          "162013.125000",
          "162013.125000",
          "162013.140000",
          "162013.140000",
          "162113.093000",
          "162113.093000",
          "162113.093000",
          "162113.093000",
          "162113.093000",
          "162113.093000",
          "162113.109000",
          "162113.109000",
          "162113.109000",
          "162113.109000",
          "162113.109000",
          "162113.109000",
          "162113.109000",
          "162113.125000",
          "162113.125000",
          "162113.125000",
          "162113.125000",
          "162113.125000",
          "162113.125000",
          "162113.125000",
          "162113.125000",
          "162113.140000",
          "162113.140000",
          "162213.093000",
          "162213.093000",
          "162213.093000",
          "162213.093000",
          "162213.093000",
          "162213.093000",
          "162213.109000",
          "162213.109000",
          "162213.109000",
          "162213.109000",
          "162213.109000",
          "162213.125000",
          "162213.125000",
          "162213.125000",
          "162213.125000",
          "162213.125000",
          "162213.125000",
          "162213.125000",
          "162213.140000",
          "162213.140000",
          "162213.140000",
          "162213.140000",
          "162213.140000",
          "162313.093000",
          "162313.093000",
          "162313.093000",
          "162313.093000",
          "162313.093000",
          "162313.093000",
          "162313.109000",
          "162313.109000",
          "162313.109000",
          "162313.109000",
          "162313.109000",
          "162313.109000",
          "162313.109000",
          "162313.109000",
          "162313.125000",
          "162313.125000",
          "162313.140000",
          "162313.140000",
          "162313.140000",
          "162313.140000",
          "162313.140000",
          "162313.156000",
          "162313.156000",
          "162318.843000"
        ],
        "InstanceNumber": [
          1,
          2,
          3,
          4,
          5,
          6,
          7,
          8,
          9,
          10,
          11,
          12,
          13,
          14,
          15,
          16,
          17,
          18,
          19,
          20,
          21,
          22,
          23,
          24,
          25,
          26,
          27,
          28,
          29,
          30,
          31,
          32,
          33,
          34,
          35,
          36,
          37,
          38,
          39,
          40,
          41,
          42,
          43,
          44,
          45,
          46,
          47,
          48,
          49,
          50,
          51,
          52,
          53,
          54,
          55,
          56,
          57,
          58,
          59,
          60,
          61,
          62,
          63,
          64,
          65,
          66,
          67,
          68,
          69,
          70,
          71,
          72,
          73,
          74,
          75,
          76,
          77,
          78,
          79,
          80,
          81,
          82,
          83,
          84,
          85,
          86,
          87,
          88,
          89,
          90,
          91,
          92,
          93,
          94,
          95,
          96,
          97,
          98,
          99,
          100,
          101,
          102,
          103,
          104,
          105,
          106,
          107,
          108,
          109,
          110,
          111,
          112,
          113,
          114,
          115,
          116,
          117,
          118,
          119,
          120,
          121,
          122,
          123,
          124,
          125,
          126,
          127,
          128,
          129,
          130,
          131,
          132,
          133,
          134,
          135,
          136,
          137,
          138,
          139,
          140,
          141,
          142,
          143,
          144,
          145,
          146,
          147,
          148,
          149,
          150,
          151,
          152,
          153,
          154,
          155,
          156,
          157,
          158,
          159,
          160,
          161,
          162,
          163,
          164,
          165,
          166,
          167,
          168,
          169,
          170,
          171,
