{
  "aor": 0.0005339351851851851,
  "aqi": 0.01899090925925926,
  "bids_meta": {
    "AcquisitionMatrixPE": 188,
    "AcquisitionNumber": 1,
    "AcquisitionTime": "15:20:15.587500",
    "BandwidthPerPixelPhaseEncode": 19.46,
    "BaseResolution": 188,
    "ConversionSoftware": "dcm2niix",
    "ConversionSoftwareVersion": "v1.0.20180606 GCC4.8.5",
    "DelayTime": 1.2,
    "DerivedVendorReportedEchoSpacing": 0.000820013,
    "DeviceSerialNumber": "18930",
    "DwellTime": 1.9e-06,
    "EchoTime": 0.02,
    "EffectiveEchoSpacing": 0.000273338,
    "FlipAngle": 80,
    "ImageComments": "Unaliased_MB2_PE2",
    "ImageOrientationPatientDICOM": [
      0.997821,
      0.028021,
      -0.0597332,
      -0.06312,
      0.14179,
      -0.987882
    ],
    "ImageType": [
      "ORIGINAL",
      "PRIMARY",
      "M",
      "MB",
      "ND",
      "MOSAIC"
    ],
    "InPlanePhaseEncodingDirectionDICOM": "COL",
    "InstitutionAddress": "Oxfordlaan_55_Maastricht_Limburg_NL_6229_EV",
    "InstitutionName": "Scannexus",
    "InstitutionalDepartmentName": "MRI_7T",
    "MRAcquisitionType": "2D",
    "MagneticFieldStrength": 6.98,
    "Manufacturer": "Siemens",
    "ManufacturersModelName": "Investigational_Device_7T",
    "Modality": "MR",
    "MultibandAccelerationFactor": 2,
    "ParallelReductionFactorInPlane": 3,
    "PartialFourier": 0.75,
    "PatientPosition": "HFS",
    "PercentPhaseFOV": 100,
    "PhaseEncodingDirection": "j",
    "PhaseEncodingSteps": 141,
    "PhaseResolution": 1,
    "PixelBandwidth": 1400,
    "ProcedureStepDescription": "FeDem_Faruk",
    "ProtocolName": "cmrr_mbep2d_bold_AP_run3",
    "PulseSequenceDetails": "%CustomerSeq%_cmrr_mbep2d_bold",
    "ReceiveCoilName": "32Ch_Head_7T",
    "ReconMatrixPE": 188,
    "RepetitionTime": 2.6,
    "SAR": 0.0928141,
    "ScanOptions": "PFP_FS",
    "ScanningSequence": "EP",
    "SequenceName": "epfid2d1_188",
    "SequenceVariant": "SK_SS",
    "SeriesDescription": "cmrr_mbep2d_bold_AP_run3",
    "SeriesNumber": 12,
    "ShimSetting": [
      100,
      -161,
      486,
      430,
      -28,
      -229,
      -278,
      176
    ],
    "SliceThickness": 1.1,
    "SliceTiming": [
      0,
      0.7325,
      0.06,
      0.7925,
      0.12,
      0.855,
      0.1825,
      0.915,
      0.2425,
      0.9775,
      0.305,
      1.0375,
      0.365,
      1.1,
      0.4275,
      1.16,
      0.4875,
      1.22,
      0.55,
      1.2825,
      0.61,
      1.3425,
      0.67,
      0,
      0.7325,
      0.06,
      0.7925,
      0.12,
      0.855,
      0.1825,
      0.915,
      0.2425,
      0.9775,
      0.305,
      1.0375,
      0.365,
      1.1,
      0.4275,
      1.16,
      0.4875,
      1.22,
      0.55,
      1.2825,
      0.61,
      1.3425,
      0.67
    ],
    "SoftwareVersions": "syngo_MR_B17",
    "SpacingBetweenSlices": 1.1,
    "StationName": "MRC18930",
    "TaskName": "auditory",
    "TotalReadoutTime": 0.0511141,
    "TxRefAmp": 245,
    "dataset": "ds001942",
    "dcmmeta_affine": [
      [
        -1.0933570861816406,
        -0.06916341930627823,
        0.021133068948984146,
        104.83399200439453
      ],
      [
        -0.030703885480761528,
        0.1553657054901123,
        -1.088449239730835,
        33.75456619262695
      ],
      [
        -0.06545233726501465,
        1.0824668407440186,
        0.15757465362548828,
        -118.5897445678711
      ],
      [
        0.0,
        0.0,
        0.0,
        1.0
      ]
    ],
    "dcmmeta_reorient_transform": [
      [
        0.0,
        -1.0,
        0.0,
        187.0
      ],
      [
        1.0,
        0.0,
        0.0,
        0.0
      ],
      [
        0.0,
        0.0,
        1.0,
        0.0
      ],
      [
        0.0,
        0.0,
        0.0,
        1.0
      ]
    ],
    "dcmmeta_shape": [
      188,
      188,
      46,
      216
    ],
    "dcmmeta_slice_dim": 2,
    "dcmmeta_version": 0.6,
    "global": {
      "const": {
        "AcquisitionMatrix": [
          188,
          0,
          0,
          188
        ],
        "AngioFlag": "N",
        "BitsAllocated": 16,
        "BitsStored": 12,
        "Columns": 1316,
        "EchoNumbers": 1,
        "EchoTime": 20.0,
        "EchoTrainLength": 1,
        "FlipAngle": 80.0,
        "HighBit": 11,
        "ImageOrientationPatient": [
          0.99782100966385,
          0.02802101971216,
          -0.0597331995436,
          -0.0631200106673,
          0.1417900610645,
          -0.9878823021174
        ],
        "ImagePositionPatient": [
          -669.54567872493,
          -167.7512079547,
          731.25795682871
        ],
        "ImageType": [
          "ORIGINAL",
          "PRIMARY",
          "M",
          "MB",
          "ND",
          "MOSAIC"
        ],
        "ImagedNucleus": "1H",
        "ImagingFrequency": 297.205483,
        "InPlanePhaseEncodingDirection": "COL",
        "LargestImagePixelValue": 4095,
        "MRAcquisitionType": "2D",
        "MagneticFieldStrength": 6.98,
        "Manufacturer": "SIEMENS",
        "ManufacturerModelName": "Investigational_Device_7T",
        "Modality": "MR",
        "NumberOfAverages": 1.0,
        "NumberOfPhaseEncodingSteps": 141,
        "PercentPhaseFieldOfView": 100.0,
        "PercentSampling": 100.0,
        "PerformedProcedureStepStartTime": "142429.390000",
        "PhotometricInterpretation": "MONOCHROME2",
        "PixelBandwidth": 1400.0,
        "PixelRepresentation": 0,
        "PixelSpacing": [
          1.0957447290421,
          1.0957447290421
        ],
        "ProtocolName": "cmrr_mbep2d_bold_AP_run3",
        "RepetitionTime": 2600.0,
        "Rows": 1316,
        "SAR": 0.09281405293601,
        "SamplesPerPixel": 1,
        "ScanOptions": [
          "PFP",
          "FS"
        ],
        "ScanningSequence": "EP",
        "SequenceName": "epfid2d1_188",
        "SequenceVariant": [
          "SK",
          "SS"
        ],
        "SeriesDescription": "cmrr_mbep2d_bold_AP_run3",
        "SeriesNumber": 12,
        "SeriesTime": "152111.875000",
        "SliceLocation": -48.374043508033,
        "SliceThickness": 1.1000000238419,
        "SmallestImagePixelValue": 0,
        "SoftwareVersions": "syngo MR B17",
        "SpacingBetweenSlices": 1.0999991725909,
        "SpecificCharacterSet": "ISO_IR 100",
        "StudyID": "1",
        "StudyTime": "142429.359000",
        "TransmitCoilName": "32Ch_Head_7T",
        "VariableFlipAngleFlag": "N",
        "WindowCenterWidthExplanation": "Algo1",
        "dBdt": 0.0
      },
      "slices": {}
    },
    "modality": "bold",
    "run_id": 3,
    "session_id": "SES04",
    "subject_id": "S11",
    "task_id": "auditory",
    "time": {
      "samples": {
        "AcquisitionNumber": [
          1,
          2,
          3,
          4,
          5,
          6,
          7,
          8,
          9,
          10,
          11,
          12,
          13,
          14,
          15,
          16,
          17,
          18,
          19,
          20,
          21,
          22,
          23,
          24,
          25,
          26,
          27,
          28,
          29,
          30,
          31,
          32,
          33,
          34,
          35,
          36,
          37,
          38,
          39,
          40,
          41,
          42,
          43,
          44,
          45,
          46,
          47,
          48,
          49,
          50,
          51,
          52,
          53,
          54,
          55,
          56,
          57,
          58,
          59,
          60,
          61,
          62,
          63,
          64,
          65,
          66,
          67,
          68,
          69,
          70,
          71,
          72,
          73,
          74,
          75,
          76,
          77,
          78,
          79,
          80,
          81,
          82,
          83,
          84,
          85,
          86,
          87,
          88,
          89,
          90,
          91,
          92,
          93,
          94,
          95,
          96,
          97,
          98,
          99,
          100,
          101,
          102,
          103,
          104,
          105,
          106,
          107,
          108,
          109,
          110,
          111,
          112,
          113,
          114,
          115,
          116,
          117,
          118,
          119,
          120,
          121,
          122,
          123,
          124,
          125,
          126,
          127,
          128,
          129,
          130,
          131,
          132,
          133,
          134,
          135,
          136,
          137,
          138,
          139,
          140,
          141,
          142,
          143,
          144,
          145,
          146,
          147,
          148,
          149,
          150,
          151,
          152,
          153,
          154,
          155,
          156,
          157,
          158,
          159,
          160,
          161,
          162,
          163,
          164,
          165,
          166,
          167,
          168,
          169,
          170,
          171,
          172,
          173,
          174,
          175,
          176,
          177,
          178,
          179,
          180,
          181,
          182,
          183,
          184,
          185,
          186,
          187,
          188,
          189,
          190,
          191,
          192,
          193,
          194,
          195,
          196,
          197,
          198,
          199,
          200,
          201,
          202,
          203,
          204,
          205,
          206,
          207,
          208,
          209,
          210,
          211,
          212,
          213,
          214,
          215,
          216
        ],
        "AcquisitionTime": [
          "152015.587500",
          "152018.197500",
          "152020.807500",
          "152023.417500",
          "152026.027500",
          "152028.637500",
          "152031.250000",
          "152033.860000",
          "152036.470000",
          "152039.080000",
          "152041.690000",
          "152044.302500",
          "152046.912500",
          "152049.522500",
          "152052.132500",
          "152054.742500",
          "152057.352500",
          "152059.965000",
          "152102.575000",
          "152105.185000",
          "152107.795000",
          "152110.405000",
          "152113.015000",
          "152115.627500",
          "152118.237500",
          "152120.847500",
          "152123.457500",
          "152126.067500",
          "152128.680000",
          "152131.290000",
          "152133.900000",
          "152136.510000",
          "152139.120000",
          "152141.730000",
          "152144.342500",
          "152146.952500",
          "152149.562500",
          "152152.172500",
          "152154.782500",
          "152157.392500",
          "152200.005000",
          "152202.615000",
          "152205.225000",
          "152207.835000",
          "152210.445000",
          "152213.057500",
          "152215.667500",
          "152218.277500",
          "152220.887500",
          "152223.497500",
          "152226.107500",
          "152228.720000",
          "152231.330000",
          "152233.940000",
          "152236.550000",
          "152239.160000",
          "152241.770000",
          "152244.382500",
          "152246.992500",
          "152249.602500",
          "152252.212500",
          "152254.822500",
          "152257.435000",
          "152300.045000",
          "152302.655000",
          "152305.265000",
          "152307.875000",
          "152310.485000",
          "152313.097500",
          "152315.707500",
          "152318.317500",
          "152320.927500",
          "152323.537500",
          "152326.147500",
          "152328.760000",
          "152331.370000",
          "152333.980000",
          "152336.590000",
          "152339.200000",
          "152341.812500",
          "152344.422500",
          "152347.032500",
          "152349.642500",
          "152352.252500",
          "152354.862500",
          "152357.475000",
          "152400.085000",
          "152402.695000",
          "152405.305000",
          "152407.915000",
          "152410.525000",
          "152413.137500",
          "152415.747500",
          "152418.357500",
          "152420.967500",
          "152423.577500",
          "152426.190000",
          "152428.800000",
          "152431.410000",
          "152434.020000",
          "152436.630000",
          "152439.240000",
          "152441.852500",
          "152444.462500",
          "152447.072500",
          "152449.682500",
          "152452.292500",
          "152454.902500",
          "152457.515000",
          "152500.125000",
          "152502.735000",
          "152505.345000",
          "152507.955000",
          "152510.567500",
          "152513.177500",
          "152515.787500",
          "152518.397500",
          "152521.007500",
          "152523.617500",
          "152526.230000",
          "152528.840000",
          "152531.450000",
          "152534.060000",
          "152536.670000",
          "152539.280000",
          "152541.892500",
          "152544.502500",
          "152547.112500",
          "152549.722500",
          "152552.332500",
          "152554.945000",
          "152557.555000",
          "152600.165000",
          "152602.775000",
          "152605.385000",
          "152607.995000",
          "152610.607500",
          "152613.217500",
          "152615.827500",
          "152618.437500",
          "152621.047500",
          "152623.657500",
          "152626.270000",
          "152628.880000",
          "152631.490000",
          "152634.100000",
          "152636.710000",
          "152639.322500",
          "152641.932500",
          "152644.542500",
          "152647.152500",
          "152649.762500",
          "152652.372500",
          "152654.985000",
          "152657.595000",
          "152700.205000",
          "152702.815000",
          "152705.425000",
          "152708.035000",
          "152710.647500",
          "152713.257500",
          "152715.867500",
          "152718.477500",
          "152721.087500",
          "152723.700000",
          "152726.310000",
          "152728.920000",
          "152731.530000",
          "152734.140000",
          "152736.750000",
          "152739.362500",
          "152741.972500",
          "152744.582500",
          "152747.192500",
          "152749.802500",
          "152752.412500",
          "152755.025000",
          "152757.635000",
          "152800.245000",
          "152802.855000",
          "152805.465000",
          "152808.077500",
          "152810.687500",
          "152813.297500",
          "152815.907500",
          "152818.517500",
          "152821.127500",
          "152823.740000",
          "152826.350000",
          "152828.960000",
          "152831.570000",
          "152834.180000",
          "152836.790000",
          "152839.402500",
          "152842.012500",
          "152844.622500",
          "152847.232500",
          "152849.842500",
          "152852.455000",
          "152855.065000",
          "152857.675000",
          "152900.285000",
          "152902.895000",
          "152905.505000",
          "152908.117500",
          "152910.727500",
          "152913.337500",
          "152915.947500",
          "152918.557500",
          "152921.170000",
          "152923.780000",
          "152926.390000",
          "152929.000000",
          "152931.610000",
          "152934.220000",
          "152936.832500"
        ],
        "ContentTime": [
          "152111.875000",
          "152111.875000",
          "152111.890000",
          "152111.906000",
          "152111.906000",
          "152111.906000",
          "152111.906000",
          "152111.906000",
          "152111.906000",
          "152111.906000",
          "152111.906000",
          "152111.921000",
          "152111.921000",
          "152111.921000",
          "152111.921000",
          "152111.921000",
          "152111.921000",
          "152111.921000",
          "152111.921000",
          "152111.937000",
          "152111.937000",
          "152211.875000",
          "152211.875000",
          "152211.875000",
          "152211.875000",
          "152211.875000",
          "152211.875000",
          "152211.875000",
          "152211.890000",
          "152211.890000",
          "152211.890000",
          "152211.890000",
          "152211.890000",
          "152211.890000",
          "152211.906000",
          "152211.906000",
          "152211.906000",
          "152211.906000",
          "152211.906000",
          "152211.906000",
          "152211.906000",
          "152211.906000",
          "152211.921000",
          "152211.921000",
          "152311.875000",
          "152311.875000",
          "152311.875000",
          "152311.875000",
          "152311.875000",
          "152311.890000",
          "152311.890000",
          "152311.890000",
          "152311.890000",
          "152311.890000",
          "152311.890000",
          "152311.890000",
          "152311.890000",
          "152311.906000",
          "152311.906000",
          "152311.906000",
          "152311.906000",
          "152311.906000",
          "152311.906000",
          "152311.906000",
          "152311.906000",
          "152311.921000",
          "152311.921000",
          "152411.875000",
          "152411.875000",
          "152411.875000",
          "152411.875000",
          "152411.890000",
          "152411.890000",
          "152411.890000",
          "152411.890000",
          "152411.906000",
          "152411.906000",
          "152411.906000",
          "152411.906000",
          "152411.906000",
          "152411.906000",
          "152411.921000",
          "152411.921000",
          "152411.921000",
          "152411.921000",
          "152411.921000",
          "152411.921000",
          "152411.921000",
          "152411.937000",
          "152411.937000",
          "152511.875000",
          "152511.875000",
          "152511.875000",
          "152511.875000",
          "152511.875000",
          "152511.875000",
          "152511.890000",
          "152511.890000",
          "152511.890000",
          "152511.890000",
          "152511.890000",
          "152511.890000",
          "152511.890000",
          "152511.890000",
          "152511.906000",
          "152511.906000",
          "152511.906000",
          "152511.906000",
          "152511.906000",
          "152511.906000",
          "152511.906000",
          "152511.921000",
          "152511.921000",
          "152611.875000",
          "152611.875000",
          "152611.875000",
          "152611.875000",
          "152611.875000",
          "152611.875000",
          "152611.890000",
          "152611.890000",
          "152611.890000",
          "152611.890000",
          "152611.890000",
          "152611.890000",
          "152611.890000",
          "152611.906000",
          "152611.906000",
          "152611.906000",
          "152611.906000",
          "152611.921000",
          "152611.921000",
          "152611.921000",
          "152611.921000",
          "152611.921000",
          "152611.921000",
          "152711.875000",
          "152711.875000",
          "152711.875000",
          "152711.875000",
          "152711.875000",
          "152711.875000",
          "152711.890000",
          "152711.890000",
          "152711.890000",
          "152711.890000",
          "152711.890000",
          "152711.890000",
          "152711.890000",
          "152711.906000",
          "152711.906000",
          "152711.906000",
          "152711.906000",
          "152711.906000",
          "152711.906000",
          "152711.906000",
          "152711.906000",
          "152711.921000",
          "152711.921000",
          "152811.875000",
          "152811.875000",
          "152811.875000",
          "152811.875000",
          "152811.875000",
          "152811.875000",
          "152811.890000",
          "152811.890000",
          "152811.890000",
          "152811.890000",
          "152811.890000",
          "152811.890000",
          "152811.890000",
          "152811.890000",
          "152811.906000",
          "152811.906000",
          "152811.906000",
          "152811.906000",
          "152811.906000",
          "152811.906000",
          "152811.921000",
          "152811.921000",
          "152811.921000",
          "152911.875000",
          "152911.875000",
          "152911.875000",
          "152911.875000",
          "152911.875000",
          "152911.875000",
          "152911.890000",
          "152911.890000",
          "152911.890000",
          "152911.890000",
          "152911.890000",
          "152911.890000",
          "152911.890000",
          "152911.890000",
          "152911.906000",
          "152911.906000",
          "152911.906000",
          "152911.906000",
          "152911.906000",
          "152911.906000",
          "152911.921000",
          "152911.921000",
          "152911.921000",
          "152943.453000",
          "152943.453000",
          "152943.453000",
          "152943.453000",
          "152943.453000",
          "152943.468000",
          "152943.468000",
          "152943.468000",
          "152943.468000",
          "152943.468000",
          "152943.468000"
        ],
        "InstanceCreationTime": [
          "152111.875000",
          "152111.875000",
          "152111.890000",
          "152111.906000",
          "152111.906000",
          "152111.906000",
          "152111.906000",
          "152111.906000",
          "152111.906000",
          "152111.906000",
          "152111.906000",
          "152111.921000",
          "152111.921000",
          "152111.921000",
          "152111.921000",
          "152111.921000",
          "152111.921000",
          "152111.921000",
          "152111.921000",
          "152111.937000",
          "152111.937000",
          "152211.875000",
          "152211.875000",
          "152211.875000",
          "152211.875000",
          "152211.875000",
          "152211.875000",
          "152211.875000",
          "152211.890000",
          "152211.890000",
          "152211.890000",
          "152211.890000",
          "152211.890000",
          "152211.890000",
          "152211.906000",
          "152211.906000",
          "152211.906000",
          "152211.906000",
          "152211.906000",
          "152211.906000",
          "152211.906000",
          "152211.906000",
          "152211.921000",
          "152211.921000",
          "152311.875000",
          "152311.875000",
          "152311.875000",
          "152311.875000",
          "152311.875000",
          "152311.890000",
          "152311.890000",
          "152311.890000",
          "152311.890000",
          "152311.890000",
          "152311.890000",
          "152311.890000",
          "152311.890000",
          "152311.906000",
          "152311.906000",
          "152311.906000",
          "152311.906000",
          "152311.906000",
          "152311.906000",
          "152311.906000",
          "152311.906000",
          "152311.921000",
          "152311.921000",
          "152411.875000",
          "152411.875000",
          "152411.875000",
          "152411.875000",
          "152411.890000",
          "152411.890000",
          "152411.890000",
          "152411.890000",
          "152411.906000",
          "152411.906000",
          "152411.906000",
          "152411.906000",
          "152411.906000",
          "152411.906000",
          "152411.921000",
          "152411.921000",
          "152411.921000",
          "152411.921000",
          "152411.921000",
          "152411.921000",
          "152411.921000",
          "152411.937000",
          "152411.937000",
          "152511.875000",
          "152511.875000",
          "152511.875000",
          "152511.875000",
          "152511.875000",
          "152511.875000",
          "152511.890000",
          "152511.890000",
          "152511.890000",
          "152511.890000",
          "152511.890000",
          "152511.890000",
          "152511.890000",
          "152511.890000",
          "152511.906000",
          "152511.906000",
          "152511.906000",
          "152511.906000",
          "152511.906000",
          "152511.906000",
          "152511.906000",
          "152511.921000",
          "152511.921000",
          "152611.875000",
          "152611.875000",
          "152611.875000",
          "152611.875000",
          "152611.875000",
          "152611.875000",
          "152611.890000",
          "152611.890000",
          "152611.890000",
          "152611.890000",
          "152611.890000",
          "152611.890000",
          "152611.890000",
          "152611.906000",
          "152611.906000",
          "152611.906000",
          "152611.906000",
          "152611.921000",
          "152611.921000",
          "152611.921000",
          "152611.921000",
          "152611.921000",
          "152611.921000",
          "152711.875000",
          "152711.875000",
          "152711.875000",
          "152711.875000",
          "152711.875000",
          "152711.875000",
          "152711.890000",
          "152711.890000",
          "152711.890000",
          "152711.890000",
          "152711.890000",
          "152711.890000",
          "152711.890000",
          "152711.906000",
          "152711.906000",
          "152711.906000",
          "152711.906000",
          "152711.906000",
          "152711.906000",
          "152711.906000",
          "152711.906000",
          "152711.921000",
          "152711.921000",
          "152811.875000",
          "152811.875000",
          "152811.875000",
          "152811.875000",
          "152811.875000",
          "152811.875000",
          "152811.890000",
          "152811.890000",
          "152811.890000",
          "152811.890000",
          "152811.890000",
          "152811.890000",
          "152811.890000",
          "152811.890000",
          "152811.906000",
          "152811.906000",
          "152811.906000",
          "152811.906000",
          "152811.906000",
          "152811.906000",
          "152811.921000",
          "152811.921000",
          "152811.921000",
          "152911.875000",
          "152911.875000",
          "152911.875000",
          "152911.875000",
          "152911.875000",
          "152911.875000",
          "152911.890000",
          "152911.890000",
          "152911.890000",
          "152911.890000",
          "152911.890000",
          "152911.890000",
          "152911.890000",
          "152911.890000",
          "152911.906000",
          "152911.906000",
          "152911.906000",
          "152911.906000",
          "152911.906000",
          "152911.906000",
          "152911.921000",
          "152911.921000",
          "152911.921000",
          "152943.453000",
          "152943.453000",
          "152943.453000",
          "152943.453000",
          "152943.453000",
          "152943.468000",
          "152943.468000",
          "152943.468000",
          "152943.468000",
          "152943.468000",
          "152943.468000"
        ],
        "InstanceNumber": [
          1,
          2,
          3,
          4,
          5,
          6,
          7,
          8,
          9,
          10,
          11,
          12,
          13,
          14,
          15,
          16,
          17,
          18,
          19,
          20,
          21,
          22,
          23,
          24,
          25,
          26,
          27,
          28,
          29,
          30,
          31,
          32,
          33,
          34,
          35,
          36,
          37,
          38,
          39,
          40,
          41,
          42,
          43,
          44,
          45,
          46,
          47,
          48,
          49,
          50,
          51,
          52,
          53,
          54,
          55,
          56,
          57,
          58,
          59,
          60,
          61,
          62,
          63,
          64,
          65,
          66,
          67,
          68,
          69,
          70,
          71,
          72,
          73,
          74,
          75,
          76,
          77,
          78,
          79,
          80,
          81,
          82,
          83,
          84,
          85,
          86,
          87,
          88,
          89,
          90,
          91,
          92,
          93,
          94,
          95,
          96,
          97,
          98,
          99,
          100,
          101,
          102,
          103,
          104,
          105,
          106,
          107,
          108,
          109,
          110,
          111,
          112,
          113,
          114,
          115,
          116,
          117,
          118,
          119,
          120,
          121,
          122,
          123,
          124,
          125,
          126,
          127,
          128,
          129,
          130,
          131,
          132,
          133,
          134,
          135,
          136,
          137,
          138,
          139,
          140,
          141,
          142,
          143,
          144,
          145,
          146,
          147,
          148,
          149,
          150,
          151,
          152,
          153,
          154,
          155,
          156,
          157,
          158,
          159,
          160,
          161,
          162,
          163,
          164,
          165,
          166,
          167,
          168,
          169,
          170,
          171,
