{
  "aor": 0.000981933333333333,
  "aqi": 0.016703326,
  "bids_meta": {
    "AcquisitionMatrixPE": 188,
    "AcquisitionNumber": 1,
    "AcquisitionTime": "13:30:43.075000",
    "BandwidthPerPixelPhaseEncode": 19.46,
    "BaseResolution": 188,
    "CogAtlasID": "TODO",
    "ConversionSoftware": "dcm2niix",
    "ConversionSoftwareVersion": "v1.0.20180606 GCC4.8.5",
    "DelayTime": 1.2,
    "DerivedVendorReportedEchoSpacing": 0.000820013,
    "DeviceSerialNumber": "18930",
    "DwellTime": 1.9e-06,
    "EchoTime": 0.02,
    "EffectiveEchoSpacing": 0.000273338,
    "FlipAngle": 80,
    "ImageComments": "Unaliased_MB2_PE2",
    "ImageOrientationPatientDICOM": [
      0.997377,
      0.0676144,
      -0.0258246,
      -0.0391664,
      0.204146,
      -0.978157
    ],
    "ImageType": [
      "ORIGINAL",
      "PRIMARY",
      "M",
      "MB",
      "ND",
      "MOSAIC"
    ],
    "InPlanePhaseEncodingDirectionDICOM": "COL",
    "InstitutionAddress": "Oxfordlaan_55_Maastricht_22AAA2_Limburg_NL_6229_EV",
    "InstitutionName": "Scannexus",
    "InstitutionalDepartmentName": "MRI_7T",
    "MRAcquisitionType": "2D",
    "MagneticFieldStrength": 6.98,
    "Manufacturer": "Siemens",
    "ManufacturersModelName": "Investigational_Device_7T",
    "Modality": "MR",
    "MultibandAccelerationFactor": 2,
    "ParallelReductionFactorInPlane": 3,
    "PartialFourier": 0.75,
    "PatientPosition": "HFS",
    "PercentPhaseFOV": 100,
    "PhaseEncodingDirection": "j",
    "PhaseEncodingSteps": 141,
    "PhaseResolution": 1,
    "PixelBandwidth": 1400,
    "ProcedureStepDescription": "FeDem_Faruk",
    "ProtocolName": "cmrr_mbep2d_bold_AP_run12",
    "PulseSequenceDetails": "%CustomerSeq%_cmrr_mbep2d_bold",
    "ReceiveCoilName": "32Ch_Head_7T",
    "ReconMatrixPE": 188,
    "RepetitionTime": 2.6,
    "SAR": 0.0419452,
    "ScanOptions": "PFP_FS",
    "ScanningSequence": "EP",
    "SequenceName": "epfid2d1_188",
    "SequenceVariant": "SK_SS",
    "SeriesDescription": "cmrr_mbep2d_bold_AP_run12",
    "SeriesNumber": 24,
    "ShimSetting": [
      29,
      -125,
      498,
      651,
      -87,
      110,
      -104,
      101
    ],
    "SliceThickness": 1.1,
    "SliceTiming": [
      0,
      0.735,
      0.0625,
      0.795,
      0.1225,
      0.855,
      0.185,
      0.9175,
      0.245,
      0.9775,
      0.305,
      1.04,
      0.3675,
      1.1,
      0.4275,
      1.1625,
      0.49,
      1.2225,
      0.55,
      1.285,
      0.6125,
      1.345,
      0.6725,
      0,
      0.735,
      0.0625,
      0.795,
      0.1225,
      0.855,
      0.185,
      0.9175,
      0.245,
      0.9775,
      0.305,
      1.04,
      0.3675,
      1.1,
      0.4275,
      1.1625,
      0.49,
      1.2225,
      0.55,
      1.285,
      0.6125,
      1.345,
      0.6725
    ],
    "SoftwareVersions": "syngo_MR_B17",
    "SpacingBetweenSlices": 1.1,
    "StationName": "MRC18930",
    "TaskName": "auditory",
    "TotalReadoutTime": 0.0511141,
    "TxRefAmp": 185,
    "dataset": "ds001942",
    "dcmmeta_affine": [
      [
        -1.092870831489563,
        -0.042916420847177505,
        0.06695205718278885,
        106.24853515625
      ],
      [
        -0.07408815622329712,
        0.2236923724412918,
        -1.0742628574371338,
        31.508892059326172
      ],
      [
        -0.02829713746905327,
        1.0718098878860474,
        0.2268851399421692,
        -110.70796966552734
      ],
      [
        0.0,
        0.0,
        0.0,
        1.0
      ]
    ],
    "dcmmeta_reorient_transform": [
      [
        0.0,
        -1.0,
        0.0,
        187.0
      ],
      [
        1.0,
        0.0,
        0.0,
        0.0
      ],
      [
        0.0,
        0.0,
        1.0,
        0.0
      ],
      [
        0.0,
        0.0,
        0.0,
        1.0
      ]
    ],
    "dcmmeta_shape": [
      188,
      188,
      46,
      150
    ],
    "dcmmeta_slice_dim": 2,
    "dcmmeta_version": 0.6,
    "global": {
      "const": {
        "AcquisitionMatrix": [
          188,
          0,
          0,
          188
        ],
        "AngioFlag": "N",
        "BitsAllocated": 16,
        "BitsStored": 12,
        "Columns": 1316,
        "EchoNumbers": 1,
        "EchoTime": 20.0,
        "EchoTrainLength": 1,
        "FlipAngle": 80.0,
        "HighBit": 11,
        "ImageOrientationPatient": [
          0.99737725082036,
          0.06761442976105,
          -0.0258245703568,
          -0.0391664402851,
          0.20414642335628,
          -0.978156545644
        ],
        "ImagePositionPatient": [
          -690.3974688749,
          -241.2875794731,
          710.18083555516
        ],
        "ImageType": [
          "ORIGINAL",
          "PRIMARY",
          "M",
          "MB",
          "ND",
          "MOSAIC"
        ],
        "ImagedNucleus": "1H",
        "ImagingFrequency": 297.205623,
        "InPlanePhaseEncodingDirection": "COL",
        "LargestImagePixelValue": 4095,
        "MRAcquisitionType": "2D",
        "MagneticFieldStrength": 6.98,
        "Manufacturer": "SIEMENS",
        "ManufacturerModelName": "Investigational_Device_7T",
        "Modality": "MR",
        "NumberOfAverages": 1.0,
        "NumberOfPhaseEncodingSteps": 141,
        "PercentPhaseFieldOfView": 100.0,
        "PercentSampling": 100.0,
        "PerformedProcedureStepStartTime": "111801.937000",
        "PhotometricInterpretation": "MONOCHROME2",
        "PixelBandwidth": 1400.0,
        "PixelRepresentation": 0,
        "PixelSpacing": [
          1.0957447290421,
          1.0957447290421
        ],
        "ProtocolName": "cmrr_mbep2d_bold_AP_run12",
        "RepetitionTime": 2600.0,
        "Rows": 1316,
        "SAR": 0.04194515571898,
        "SamplesPerPixel": 1,
        "ScanOptions": [
          "PFP",
          "FS"
        ],
        "ScanningSequence": "EP",
        "SequenceName": "epfid2d1_188",
        "SequenceVariant": [
          "SK",
          "SS"
        ],
        "SeriesDescription": "cmrr_mbep2d_bold_AP_run12",
        "SeriesNumber": 24,
        "SeriesTime": "133052.734000",
        "SliceLocation": -47.139332537884,
        "SliceThickness": 1.1000000238419,
        "SmallestImagePixelValue": 0,
        "SoftwareVersions": "syngo MR B17",
        "SpacingBetweenSlices": 1.1000000344112,
        "SpecificCharacterSet": "ISO_IR 100",
        "StudyID": "1",
        "StudyTime": "111801.890000",
        "TransmitCoilName": "32Ch_Head_7T",
        "VariableFlipAngleFlag": "N",
        "WindowCenterWidthExplanation": "Algo1",
        "dBdt": 0.0
      },
      "slices": {}
    },
    "modality": "bold",
    "run_id": 12,
    "session_id": "SES02",
    "subject_id": "S05",
    "task_id": "auditory",
    "time": {
      "samples": {
        "AcquisitionNumber": [
          1,
          2,
          3,
          4,
          5,
          6,
          7,
          8,
          9,
          10,
          11,
          12,
          13,
          14,
          15,
          16,
          17,
          18,
          19,
          20,
          21,
          22,
          23,
          24,
          25,
          26,
          27,
          28,
          29,
          30,
          31,
          32,
          33,
          34,
          35,
          36,
          37,
          38,
          39,
          40,
          41,
          42,
          43,
          44,
          45,
          46,
          47,
          48,
          49,
          50,
          51,
          52,
          53,
          54,
          55,
          56,
          57,
          58,
          59,
          60,
          61,
          62,
          63,
          64,
          65,
          66,
          67,
          68,
          69,
          70,
          71,
          72,
          73,
          74,
          75,
          76,
          77,
          78,
          79,
          80,
          81,
          82,
          83,
          84,
          85,
          86,
          87,
          88,
          89,
          90,
          91,
          92,
          93,
          94,
          95,
          96,
          97,
          98,
          99,
          100,
          101,
          102,
          103,
          104,
          105,
          106,
          107,
          108,
          109,
          110,
          111,
          112,
          113,
          114,
          115,
          116,
          117,
          118,
          119,
          120,
          121,
          122,
          123,
          124,
          125,
          126,
          127,
          128,
          129,
          130,
          131,
          132,
          133,
          134,
          135,
          136,
          137,
          138,
          139,
          140,
          141,
          142,
          143,
          144,
          145,
          146,
          147,
          148,
          149,
          150
        ],
        "AcquisitionTime": [
          "133043.075000",
          "133045.685000",
          "133048.297500",
          "133050.907500",
          "133053.517500",
          "133056.127500",
          "133058.737500",
          "133101.350000",
          "133103.960000",
          "133106.570000",
          "133109.180000",
          "133111.790000",
          "133114.400000",
          "133117.012500",
          "133119.622500",
          "133122.232500",
          "133124.842500",
          "133127.452500",
          "133130.062500",
          "133132.675000",
          "133135.285000",
          "133137.895000",
          "133140.505000",
          "133143.115000",
          "133145.727500",
          "133148.337500",
          "133150.947500",
          "133153.557500",
          "133156.167500",
          "133158.777500",
          "133201.390000",
          "133204.000000",
          "133206.610000",
          "133209.220000",
          "133211.830000",
          "133214.440000",
          "133217.052500",
          "133219.662500",
          "133222.272500",
          "133224.882500",
          "133227.492500",
          "133230.105000",
          "133232.715000",
          "133235.325000",
          "133237.935000",
          "133240.545000",
          "133243.155000",
          "133245.767500",
          "133248.377500",
          "133250.987500",
          "133253.597500",
          "133256.207500",
          "133258.817500",
          "133301.430000",
          "133304.040000",
          "133306.650000",
          "133309.260000",
          "133311.870000",
          "133314.482500",
          "133317.092500",
          "133319.702500",
          "133322.312500",
          "133324.922500",
          "133327.532500",
          "133330.145000",
          "133332.755000",
          "133335.365000",
          "133337.975000",
          "133340.585000",
          "133343.195000",
          "133345.807500",
          "133348.417500",
          "133351.027500",
          "133353.637500",
          "133356.247500",
          "133358.860000",
          "133401.470000",
          "133404.080000",
          "133406.690000",
          "133409.300000",
          "133411.910000",
          "133414.522500",
          "133417.132500",
          "133419.742500",
          "133422.352500",
          "133424.962500",
          "133427.572500",
          "133430.185000",
          "133432.795000",
          "133435.405000",
          "133438.015000",
          "133440.625000",
          "133443.237500",
          "133445.847500",
          "133448.457500",
          "133451.067500",
          "133453.677500",
          "133456.287500",
          "133458.900000",
          "133501.510000",
          "133504.120000",
          "133506.730000",
          "133509.340000",
          "133511.950000",
          "133514.562500",
          "133517.172500",
          "133519.782500",
          "133522.392500",
          "133525.002500",
          "133527.615000",
          "133530.225000",
          "133532.835000",
          "133535.445000",
          "133538.055000",
          "133540.665000",
          "133543.277500",
          "133545.887500",
          "133548.497500",
          "133551.107500",
          "133553.717500",
          "133556.327500",
          "133558.940000",
          "133601.550000",
          "133604.160000",
          "133606.770000",
          "133609.380000",
          "133611.992500",
          "133614.602500",
          "133617.212500",
          "133619.822500",
          "133622.432500",
          "133625.042500",
          "133627.655000",
          "133630.265000",
          "133632.875000",
          "133635.485000",
          "133638.095000",
          "133640.705000",
          "133643.317500",
          "133645.927500",
          "133648.537500",
          "133651.147500",
          "133653.757500",
          "133656.370000",
          "133658.980000",
          "133701.590000",
          "133704.200000",
          "133706.810000",
          "133709.420000",
          "133712.032500"
        ],
        "ContentTime": [
          "133052.734000",
          "133052.750000",
          "133053.734000",
          "133055.734000",
          "133058.234000",
          "133100.734000",
          "133103.234000",
          "133106.234000",
          "133108.734000",
          "133111.234000",
          "133113.734000",
          "133116.734000",
          "133119.234000",
          "133121.734000",
          "133124.234000",
          "133126.734000",
          "133129.234000",
          "133132.234000",
          "133134.734000",
          "133137.234000",
          "133139.734000",
          "133142.234000",
          "133145.234000",
          "133147.734000",
          "133150.234000",
          "133152.734000",
          "133155.234000",
          "133158.234000",
          "133200.734000",
          "133203.234000",
          "133205.734000",
          "133208.234000",
          "133211.234000",
          "133213.734000",
          "133216.234000",
          "133218.734000",
          "133221.734000",
          "133224.234000",
          "133226.734000",
          "133229.234000",
          "133231.734000",
          "133234.734000",
          "133237.234000",
          "133239.734000",
          "133242.234000",
          "133244.734000",
          "133247.234000",
          "133250.234000",
          "133252.734000",
          "133255.234000",
          "133257.734000",
          "133300.234000",
          "133303.234000",
          "133305.734000",
          "133308.234000",
          "133310.734000",
          "133313.234000",
          "133316.234000",
          "133318.734000",
          "133321.234000",
          "133323.734000",
          "133326.234000",
          "133329.234000",
          "133331.734000",
          "133334.234000",
          "133336.734000",
          "133339.234000",
          "133342.234000",
          "133344.734000",
          "133347.234000",
          "133349.734000",
          "133352.234000",
          "133355.234000",
          "133357.734000",
          "133400.234000",
          "133402.734000",
          "133405.234000",
          "133408.234000",
          "133410.734000",
          "133413.234000",
          "133415.734000",
          "133418.234000",
          "133421.234000",
          "133423.734000",
          "133426.234000",
          "133428.734000",
          "133431.234000",
          "133434.234000",
          "133436.734000",
          "133439.234000",
          "133441.734000",
          "133444.234000",
          "133447.234000",
          "133449.734000",
          "133452.234000",
          "133454.734000",
          "133457.234000",
          "133500.234000",
          "133502.734000",
          "133505.234000",
          "133507.734000",
          "133510.234000",
          "133513.234000",
          "133515.734000",
          "133518.234000",
          "133520.734000",
          "133523.234000",
          "133526.234000",
          "133528.734000",
          "133531.234000",
          "133533.734000",
          "133536.734000",
          "133539.234000",
          "133541.734000",
          "133544.234000",
          "133546.734000",
          "133549.734000",
          "133552.234000",
          "133554.734000",
          "133557.234000",
          "133559.734000",
          "133602.234000",
          "133605.234000",
          "133607.734000",
          "133610.234000",
          "133612.734000",
          "133615.234000",
          "133618.234000",
          "133620.734000",
          "133623.234000",
          "133625.734000",
          "133628.234000",
          "133631.234000",
          "133633.734000",
          "133636.234000",
          "133638.734000",
          "133641.234000",
          "133644.234000",
          "133646.734000",
          "133649.234000",
          "133651.734000",
          "133654.234000",
          "133657.234000",
          "133659.734000",
          "133702.234000",
          "133704.734000",
          "133707.734000",
          "133710.234000",
          "133712.734000",
          "133720.000000"
        ],
        "InstanceCreationTime": [
          "133052.734000",
          "133052.750000",
          "133053.734000",
          "133055.734000",
          "133058.234000",
          "133100.734000",
          "133103.234000",
          "133106.234000",
          "133108.734000",
          "133111.234000",
          "133113.734000",
          "133116.734000",
          "133119.234000",
          "133121.734000",
          "133124.234000",
          "133126.734000",
          "133129.234000",
          "133132.234000",
          "133134.734000",
          "133137.234000",
          "133139.734000",
          "133142.234000",
          "133145.234000",
          "133147.734000",
          "133150.234000",
          "133152.734000",
          "133155.234000",
          "133158.234000",
          "133200.734000",
          "133203.234000",
          "133205.734000",
          "133208.234000",
          "133211.234000",
          "133213.734000",
          "133216.234000",
          "133218.734000",
          "133221.734000",
          "133224.234000",
          "133226.734000",
          "133229.234000",
          "133231.734000",
          "133234.734000",
          "133237.234000",
          "133239.734000",
          "133242.234000",
          "133244.734000",
          "133247.234000",
          "133250.234000",
          "133252.734000",
          "133255.234000",
          "133257.734000",
          "133300.234000",
          "133303.234000",
          "133305.734000",
          "133308.234000",
          "133310.734000",
          "133313.234000",
          "133316.234000",
          "133318.734000",
          "133321.234000",
          "133323.734000",
          "133326.234000",
          "133329.234000",
          "133331.734000",
          "133334.234000",
          "133336.734000",
          "133339.234000",
          "133342.234000",
          "133344.734000",
          "133347.234000",
          "133349.734000",
          "133352.234000",
          "133355.234000",
          "133357.734000",
          "133400.234000",
          "133402.734000",
          "133405.234000",
          "133408.234000",
          "133410.734000",
          "133413.234000",
          "133415.734000",
          "133418.234000",
          "133421.234000",
          "133423.734000",
          "133426.234000",
          "133428.734000",
          "133431.234000",
          "133434.234000",
          "133436.734000",
          "133439.234000",
          "133441.734000",
          "133444.234000",
          "133447.234000",
          "133449.734000",
          "133452.234000",
          "133454.734000",
          "133457.234000",
          "133500.234000",
          "133502.734000",
          "133505.234000",
          "133507.734000",
          "133510.234000",
          "133513.234000",
          "133515.734000",
          "133518.234000",
          "133520.734000",
          "133523.234000",
          "133526.234000",
          "133528.734000",
          "133531.234000",
          "133533.734000",
          "133536.734000",
          "133539.234000",
          "133541.734000",
          "133544.234000",
          "133546.734000",
          "133549.734000",
          "133552.234000",
          "133554.734000",
          "133557.234000",
          "133559.734000",
          "133602.234000",
          "133605.234000",
          "133607.734000",
          "133610.234000",
          "133612.734000",
          "133615.234000",
          "133618.234000",
          "133620.734000",
          "133623.234000",
          "133625.734000",
          "133628.234000",
          "133631.234000",
          "133633.734000",
          "133636.234000",
          "133638.734000",
          "133641.234000",
          "133644.234000",
          "133646.734000",
          "133649.234000",
          "133651.734000",
          "133654.234000",
          "133657.234000",
          "133659.734000",
          "133702.234000",
          "133704.734000",
          "133707.734000",
          "133710.234000",
          "133712.734000",
          "133720.000000"
        ],
        "InstanceNumber": [
          1,
          2,
          3,
          4,
          5,
          6,
          7,
          8,
          9,
          10,
          11,
          12,
          13,
          14,
          15,
          16,
          17,
          18,
          19,
          20,
          21,
          22,
          23,
          24,
          25,
          26,
          27,
          28,
          29,
          30,
          31,
          32,
          33,
          34,
          35,
          36,
          37,
          38,
          39,
          40,
          41,
          42,
          43,
          44,
          45,
          46,
          47,
          48,
          49,
          50,
          51,
          52,
          53,
          54,
          55,
          56,
          57,
          58,
          59,
          60,
          61,
          62,
          63,
          64,
          65,
          66,
          67,
          68,
          69,
          70,
          71,
          72,
          73,
          74,
          75,
          76,
          77,
          78,
          79,
          80,
          81,
          82,
          83,
          84,
          85,
          86,
          87,
          88,
          89,
          90,
          91,
          92,
          93,
          94,
          95,
          96,
          97,
          98,
          99,
          100,
          101,
          102,
          103,
          104,
          105,
          106,
          107,
          108,
          109,
          110,
          111,
          112,
          113,
          114,
          115,
          116,
          117,
          118,
          119,
          120,
          121,
          122,
          123,
          124,
          125,
          126,
          127,
          128,
          129,
          130,
          131,
          132,
          133,
          134,
          135,
          136,
          137,
          138,
          139,
          140,
          141,
          142,
          143,
          144,
          145,
          146,
          147,
          148,
          149,
          150
        ],
        "WindowCenter": [
          885.0,
          880.0,
          879.0,
          880.0,
          881.0,
          882.0,
          886.0,
          887.0,
          885.0,
          883.0,
          882.0,
          882.0,
          881.0,
          880.0,
          882.0,
          882.0,
          883.0,
          883.0,
          882.0,
          883.0,
          886.0,
          882.0,
          881.0,
          881.0,
          881.0,
          883.0,
          886.0,
          885.0,
          883.0,
          886.0,
          882.0,
          884.0,
          882.0,
          881.0,
          882.0,
          882.0,
          883.0,
          886.0,
          887.0,
          885.0,
          882.0,
          881.0,
          881.0,
          884.0,
          884.0,
          884.0,
          886.0,
          886.0,
          885.0,
          884.0,
          886.0,
          886.0,
          884.0,
          885.0,
          888.0,
          884.0,
          882.0,
          884.0,
          885.0,
          885.0,
          886.0,
          885.0,
          885.0,
          885.0,
          885.0,
          885.0,
          883.0,
          884.0,
          887.0,
          886.0,
          884.0,
          883.0,
          887.0,
          887.0,
          884.0,
          884.0,
          883.0,
          884.0,
          885.0,
          887.0,
          885.0,
          884.0,
          884.0,
          886.0,
          885.0,
          885.0,
          885.0,
          885.0,
          887.0,
          886.0,
          883.0,
          882.0,
          881.0,
          884.0,
          883.0,
          884.0,
          886.0,
          885.0,
          885.0,
          885.0,
          882.0,
          883.0,
          884.0,
          885.0,
          883.0,
          882.0,
          883.0,
          883.0,
          884.0,
          885.0,
          885.0,
          881.0,
          880.0,
          882.0,
          880.0,
          883.0,
          883.0,
          882.0,
          882.0,
          881.0,
          884.0,
          884.0,
          881.0,
          881.0,
          883.0,
          882.0,
          881.0,
          880.0,
          882.0,
          883.0,
          884.0,
          885.0,
          884.0,
          885.0,
          885.0,
          885.0,
          883.0,
          884.0,
          884.0,
          883.0,
          882.0,
          882.0,
          882.0,
          883.0,
          886.0,
          885.0,
          885.0,
          884.0,
          884.0,
          883.0
        ],
        "WindowWidth": [
          1995.0,
          1980.0,
          1978.0,
          1983.0,
          1984.0,
          1988.0,
          1998.0,
          2001.0,
          1995.0,
          1989.0,
          1989.0,
          1987.0,
          1984.0,
          1981.0,
          1989.0,
          1988.0,
          1992.0,
          1991.0,
          1987.0,
          1994.0,
          1999.0,
          1989.0,
          1984.0,
          1984.0,
          1984.0,
          1991.0,
          2000.0,
          1996.0,
          1991.0,
          1999.0,
          1989.0,
          1994.0,
          1986.0,
          1985.0,
          1989.0,
          1987.0,
          1992.0,
          2000.0,
          2002.0,
          1996.0,
          1988.0,
          1985.0,
          1985.0,
          1995.0,
          1992.0,
          1993.0,
          1999.0,
          1999.0,
          1996.0,
          1993.0,
          2000.0,
          1998.0,
          1994.0,
          1998.0,
          2003.0,
          1993.0,
          1987.0,
          1993.0,
          1996.0,
          1997.0,
          1998.0,
          1997.0,
          1995.0,
          1997.0,
          1994.0,
          1995.0,
          1990.0,
          1993.0,
          2001.0,
          1998.0,
          1992.0,
          1991.0,
          2002.0,
          2001.0,
          1994.0,
          1992.0,
          1992.0,
          1992.0,
          1996.0,
          2002.0,
          1997.0,
          1994.0,
          1993.0,
          1998.0,
          1997.0,
          1996.0,
          1997.0,
          1996.0,
          2002.0,
          1999.0,
          1990.0,
          1987.0,
          1985.0,
          1994.0,
          1991.0,
          1994.0,
          2001.0,
          1996.0,
          1996.0,
          1997.0,
          1987.0,
          1991.0,
          1993.0,
          1997.0,
          1992.0,
          1988.0,
          1990.0,
          1991.0,
          1994.0,
          1996.0,
          1995.0,
          1984.0,
          1981.0,
          1987.0,
          1984.0,
          1993.0,
          1990.0,
          1988.0,
          1987.0,
          1984.0,
          1996.0,
          1994.0,
          1986.0,
          1984.0,
          1990.0,
          1989.0,
          1984.0,
          1982.0,
          1989.0,
          1991.0,
          1995.0,
          1996.0,
          1994.0,
          1995.0,
          1998.0,
          1996.0,
          1991.0,
          1994.0,
          1992.0,
          1990.0,
          1987.0,
          1987.0,
          1989.0,
          1991.0,
          1999.0,
          1996.0,
          1997.0,
          1994.0,
          1995.0,
          1991.0
        ]
      },
      "slices": {}
    }
  },
  "dummy_trs": 0,
  "dvars_nstd": 83.24279385771813,
  "dvars_std": 1.0711341498657723,
  "dvars_vstd": 1.0154295836912752,
  "efc": 0.5843580987044882,
  "fber": 191.61338806152344,
  "fd_mean": 0.12687981876539436,
  "fd_num": 21,
  "fd_perc": 14.0,
  "fwhm_avg": 3.1435203579015543,
  "fwhm_x": 3.0507835551465425,
  "fwhm_y": 2.959941229044712,
  "fwhm_z": 3.4198362895134085,
  "gcor": 0.00393842,
  "gsr_x": 0.027763426303863525,
  "gsr_y": 0.052266668528318405,
  "provenance": {
    "md5sum": "cf29b0c0954169105479257fc141eeea",
    "settings": {
      "fd_thres": 0.2,
      "testing": false
    },
    "software": "mriqc",
    "version": "22.0.6",
    "webapi_port": null,
    "webapi_url": "https://mriqc.nimh.nih.gov/api/v1"
  },
  "size_t": 150,
  "size_x": 188,
  "size_y": 188,
  "size_z": 46,
  "snr": 1.7599306647862312,
  "spacing_tr": 2.5999999046325684,
  "spacing_x": 1.0957447290420532,
  "spacing_y": 1.0957447290420532,
  "spacing_z": 1.100000023841858,
  "summary_bg_k": 31.66003937440886,
  "summary_bg_mad": 40.395973046834584,
  "summary_bg_mean": 114.98049926757812,
  "summary_bg_median": 61.0333366394043,
  "summary_bg_n": 1021381.0,
  "summary_bg_p05": 28.520000457763672,
  "summary_bg_p95": 378.58001708984375,
