{
  "aor": 0.0008934666666666665,
  "aqi": 0.015882319333333336,
  "bids_meta": {
    "AcquisitionMatrixPE": 188,
    "AcquisitionNumber": 1,
    "AcquisitionTime": "12:25:7.597500",
    "BandwidthPerPixelPhaseEncode": 19.46,
    "BaseResolution": 188,
    "CogAtlasID": "TODO",
    "ConversionSoftware": "dcm2niix",
    "ConversionSoftwareVersion": "v1.0.20180606 GCC4.8.5",
    "DelayTime": 1.2,
    "DerivedVendorReportedEchoSpacing": 0.000820013,
    "DeviceSerialNumber": "18930",
    "DwellTime": 1.9e-06,
    "EchoTime": 0.02,
    "EffectiveEchoSpacing": 0.000273338,
    "FlipAngle": 80,
    "ImageComments": "Unaliased_MB2_PE2",
    "ImageOrientationPatientDICOM": [
      0.997377,
      0.0676144,
      -0.0258246,
      -0.0391664,
      0.204146,
      -0.978157
    ],
    "ImageType": [
      "ORIGINAL",
      "PRIMARY",
      "M",
      "MB",
      "ND",
      "MOSAIC"
    ],
    "InPlanePhaseEncodingDirectionDICOM": "COL",
    "InstitutionAddress": "Oxfordlaan_55_Maastricht_22AAA2_Limburg_NL_6229_EV",
    "InstitutionName": "Scannexus",
    "InstitutionalDepartmentName": "MRI_7T",
    "MRAcquisitionType": "2D",
    "MagneticFieldStrength": 6.98,
    "Manufacturer": "Siemens",
    "ManufacturersModelName": "Investigational_Device_7T",
    "Modality": "MR",
    "MultibandAccelerationFactor": 2,
    "ParallelReductionFactorInPlane": 3,
    "PartialFourier": 0.75,
    "PatientPosition": "HFS",
    "PercentPhaseFOV": 100,
    "PhaseEncodingDirection": "j",
    "PhaseEncodingSteps": 141,
    "PhaseResolution": 1,
    "PixelBandwidth": 1400,
    "ProcedureStepDescription": "FeDem_Faruk",
    "ProtocolName": "cmrr_mbep2d_bold_AP_run4",
    "PulseSequenceDetails": "%CustomerSeq%_cmrr_mbep2d_bold",
    "ReceiveCoilName": "32Ch_Head_7T",
    "ReconMatrixPE": 188,
    "RepetitionTime": 2.6,
    "SAR": 0.0422978,
    "ScanOptions": "PFP_FS",
    "ScanningSequence": "EP",
    "SequenceName": "epfid2d1_188",
    "SequenceVariant": "SK_SS",
    "SeriesDescription": "cmrr_mbep2d_bold_AP_run4",
    "SeriesNumber": 14,
    "ShimSetting": [
      29,
      -125,
      498,
      651,
      -87,
      110,
      -104,
      101
    ],
    "SliceThickness": 1.1,
    "SliceTiming": [
      0,
      0.7325,
      0.06,
      0.795,
      0.1225,
      0.855,
      0.1825,
      0.9175,
      0.245,
      0.9775,
      0.305,
      1.04,
      0.3675,
      1.1,
      0.4275,
      1.16,
      0.49,
      1.2225,
      0.55,
      1.2825,
      0.61,
      1.345,
      0.6725,
      0,
      0.7325,
      0.06,
      0.795,
      0.1225,
      0.855,
      0.1825,
      0.9175,
      0.245,
      0.9775,
      0.305,
      1.04,
      0.3675,
      1.1,
      0.4275,
      1.16,
      0.49,
      1.2225,
      0.55,
      1.2825,
      0.61,
      1.345,
      0.6725
    ],
    "SoftwareVersions": "syngo_MR_B17",
    "SpacingBetweenSlices": 1.1,
    "StationName": "MRC18930",
    "TaskName": "auditory",
    "TotalReadoutTime": 0.0511141,
    "TxRefAmp": 185,
    "dataset": "ds001942",
    "dcmmeta_affine": [
      [
        -1.092870831489563,
        -0.042916420847177505,
        0.06695205718278885,
        106.24853515625
      ],
      [
        -0.07408815622329712,
        0.2236923724412918,
        -1.0742628574371338,
        31.508892059326172
      ],
      [
        -0.02829713746905327,
        1.0718098878860474,
        0.2268851399421692,
        -110.70796966552734
      ],
      [
        0.0,
        0.0,
        0.0,
        1.0
      ]
    ],
    "dcmmeta_reorient_transform": [
      [
        0.0,
        -1.0,
        0.0,
        187.0
      ],
      [
        1.0,
        0.0,
        0.0,
        0.0
      ],
      [
        0.0,
        0.0,
        1.0,
        0.0
      ],
      [
        0.0,
        0.0,
        0.0,
        1.0
      ]
    ],
    "dcmmeta_shape": [
      188,
      188,
      46,
      150
    ],
    "dcmmeta_slice_dim": 2,
    "dcmmeta_version": 0.6,
    "global": {
      "const": {
        "AcquisitionMatrix": [
          188,
          0,
          0,
          188
        ],
        "AngioFlag": "N",
        "BitsAllocated": 16,
        "BitsStored": 12,
        "Columns": 1316,
        "EchoNumbers": 1,
        "EchoTime": 20.0,
        "EchoTrainLength": 1,
        "FlipAngle": 80.0,
        "HighBit": 11,
        "ImageOrientationPatient": [
          0.99737725082036,
          0.06761442976105,
          -0.0258245703568,
          -0.0391664402851,
          0.20414642335628,
          -0.978156545644
        ],
        "ImagePositionPatient": [
          -690.3974688749,
          -241.2875794731,
          710.18083555516
        ],
        "ImageType": [
          "ORIGINAL",
          "PRIMARY",
          "M",
          "MB",
          "ND",
          "MOSAIC"
        ],
        "ImagedNucleus": "1H",
        "ImagingFrequency": 297.205591,
        "InPlanePhaseEncodingDirection": "COL",
        "LargestImagePixelValue": 4095,
        "MRAcquisitionType": "2D",
        "MagneticFieldStrength": 6.98,
        "Manufacturer": "SIEMENS",
        "ManufacturerModelName": "Investigational_Device_7T",
        "Modality": "MR",
        "NumberOfAverages": 1.0,
        "NumberOfPhaseEncodingSteps": 141,
        "PercentPhaseFieldOfView": 100.0,
        "PercentSampling": 100.0,
        "PerformedProcedureStepStartTime": "111801.937000",
        "PhotometricInterpretation": "MONOCHROME2",
        "PixelBandwidth": 1400.0,
        "PixelRepresentation": 0,
        "PixelSpacing": [
          1.0957447290421,
          1.0957447290421
        ],
        "ProtocolName": "cmrr_mbep2d_bold_AP_run4",
        "RepetitionTime": 2600.0,
        "Rows": 1316,
        "SAR": 0.04229779552915,
        "SamplesPerPixel": 1,
        "ScanOptions": [
          "PFP",
          "FS"
        ],
        "ScanningSequence": "EP",
        "SequenceName": "epfid2d1_188",
        "SequenceVariant": [
          "SK",
          "SS"
        ],
        "SeriesDescription": "cmrr_mbep2d_bold_AP_run4",
        "SeriesNumber": 14,
        "SeriesTime": "122516.218000",
        "SliceLocation": -47.139332537884,
        "SliceThickness": 1.1000000238419,
        "SmallestImagePixelValue": 0,
        "SoftwareVersions": "syngo MR B17",
        "SpacingBetweenSlices": 1.1000000344112,
        "SpecificCharacterSet": "ISO_IR 100",
        "StudyID": "1",
        "StudyTime": "111801.890000",
        "TransmitCoilName": "32Ch_Head_7T",
        "VariableFlipAngleFlag": "N",
        "WindowCenterWidthExplanation": "Algo1",
        "dBdt": 0.0
      },
      "slices": {}
    },
    "modality": "bold",
    "run_id": 4,
    "session_id": "SES02",
    "subject_id": "S05",
    "task_id": "auditory",
    "time": {
      "samples": {
        "AcquisitionNumber": [
          1,
          2,
          3,
          4,
          5,
          6,
          7,
          8,
          9,
          10,
          11,
          12,
          13,
          14,
          15,
          16,
          17,
          18,
          19,
          20,
          21,
          22,
          23,
          24,
          25,
          26,
          27,
          28,
          29,
          30,
          31,
          32,
          33,
          34,
          35,
          36,
          37,
          38,
          39,
          40,
          41,
          42,
          43,
          44,
          45,
          46,
          47,
          48,
          49,
          50,
          51,
          52,
          53,
          54,
          55,
          56,
          57,
          58,
          59,
          60,
          61,
          62,
          63,
          64,
          65,
          66,
          67,
          68,
          69,
          70,
          71,
          72,
          73,
          74,
          75,
          76,
          77,
          78,
          79,
          80,
          81,
          82,
          83,
          84,
          85,
          86,
          87,
          88,
          89,
          90,
          91,
          92,
          93,
          94,
          95,
          96,
          97,
          98,
          99,
          100,
          101,
          102,
          103,
          104,
          105,
          106,
          107,
          108,
          109,
          110,
          111,
          112,
          113,
          114,
          115,
          116,
          117,
          118,
          119,
          120,
          121,
          122,
          123,
          124,
          125,
          126,
          127,
          128,
          129,
          130,
          131,
          132,
          133,
          134,
          135,
          136,
          137,
          138,
          139,
          140,
          141,
          142,
          143,
          144,
          145,
          146,
          147,
          148,
          149,
          150
        ],
        "AcquisitionTime": [
          "122507.597500",
          "122510.207500",
          "122512.817500",
          "122515.430000",
          "122518.040000",
          "122520.650000",
          "122523.260000",
          "122525.870000",
          "122528.480000",
          "122531.092500",
          "122533.702500",
          "122536.312500",
          "122538.922500",
          "122541.532500",
          "122544.142500",
          "122546.755000",
          "122549.365000",
          "122551.975000",
          "122554.585000",
          "122557.195000",
          "122559.807500",
          "122602.417500",
          "122605.027500",
          "122607.637500",
          "122610.247500",
          "122612.857500",
          "122615.470000",
          "122618.080000",
          "122620.690000",
          "122623.300000",
          "122625.910000",
          "122628.520000",
          "122631.132500",
          "122633.742500",
          "122636.352500",
          "122638.962500",
          "122641.572500",
          "122644.185000",
          "122646.795000",
          "122649.405000",
          "122652.015000",
          "122654.625000",
          "122657.235000",
          "122659.847500",
          "122702.457500",
          "122705.067500",
          "122707.677500",
          "122710.287500",
          "122712.897500",
          "122715.510000",
          "122718.120000",
          "122720.730000",
          "122723.340000",
          "122725.950000",
          "122728.562500",
          "122731.172500",
          "122733.782500",
          "122736.392500",
          "122739.002500",
          "122741.612500",
          "122744.225000",
          "122746.835000",
          "122749.445000",
          "122752.055000",
          "122754.665000",
          "122757.275000",
          "122759.887500",
          "122802.497500",
          "122805.107500",
          "122807.717500",
          "122810.327500",
          "122812.940000",
          "122815.550000",
          "122818.160000",
          "122820.770000",
          "122823.380000",
          "122825.990000",
          "122828.602500",
          "122831.212500",
          "122833.822500",
          "122836.432500",
          "122839.042500",
          "122841.652500",
          "122844.265000",
          "122846.875000",
          "122849.485000",
          "122852.095000",
          "122854.705000",
          "122857.317500",
          "122859.927500",
          "122902.537500",
          "122905.147500",
          "122907.757500",
          "122910.367500",
          "122912.980000",
          "122915.590000",
          "122918.200000",
          "122920.810000",
          "122923.420000",
          "122926.030000",
          "122928.642500",
          "122931.252500",
          "122933.862500",
          "122936.472500",
          "122939.082500",
          "122941.695000",
          "122944.305000",
          "122946.915000",
          "122949.525000",
          "122952.135000",
          "122954.745000",
          "122957.357500",
          "122959.967500",
          "123002.577500",
          "123005.187500",
          "123007.797500",
          "123010.410000",
          "123013.020000",
          "123015.630000",
          "123018.240000",
          "123020.850000",
          "123023.460000",
          "123026.072500",
          "123028.682500",
          "123031.292500",
          "123033.902500",
          "123036.512500",
          "123039.122500",
          "123041.735000",
          "123044.345000",
          "123046.955000",
          "123049.565000",
          "123052.175000",
          "123054.787500",
          "123057.397500",
          "123100.007500",
          "123102.617500",
          "123105.227500",
          "123107.837500",
          "123110.450000",
          "123113.060000",
          "123115.670000",
          "123118.280000",
          "123120.890000",
          "123123.500000",
          "123126.112500",
          "123128.722500",
          "123131.332500",
          "123133.942500",
          "123136.552500"
        ],
        "ContentTime": [
          "122516.218000",
          "122516.703000",
          "122517.203000",
          "122519.703000",
          "122522.203000",
          "122524.703000",
          "122527.203000",
          "122529.703000",
          "122532.703000",
          "122535.203000",
          "122537.703000",
          "122540.203000",
          "122542.703000",
          "122545.703000",
          "122548.203000",
          "122550.703000",
          "122553.203000",
          "122555.703000",
          "122558.703000",
          "122601.203000",
          "122603.703000",
          "122606.203000",
          "122608.703000",
          "122611.703000",
          "122614.203000",
          "122616.703000",
          "122619.203000",
          "122621.703000",
          "122624.703000",
          "122627.203000",
          "122629.703000",
          "122632.203000",
          "122634.703000",
          "122637.703000",
          "122640.203000",
          "122642.703000",
          "122645.203000",
          "122647.703000",
          "122650.703000",
          "122653.203000",
          "122655.703000",
          "122658.203000",
          "122700.703000",
          "122703.703000",
          "122706.203000",
          "122708.703000",
          "122711.203000",
          "122713.703000",
          "122716.703000",
          "122719.203000",
          "122721.703000",
          "122724.203000",
          "122726.703000",
          "122729.703000",
          "122732.203000",
          "122734.703000",
          "122737.203000",
          "122739.703000",
          "122742.703000",
          "122745.203000",
          "122747.703000",
          "122750.203000",
          "122752.703000",
          "122755.703000",
          "122758.203000",
          "122800.703000",
          "122803.203000",
          "122805.703000",
          "122808.703000",
          "122811.203000",
          "122813.703000",
          "122816.203000",
          "122818.703000",
          "122821.703000",
          "122824.203000",
          "122826.703000",
          "122829.203000",
          "122831.703000",
          "122834.703000",
          "122837.203000",
          "122839.703000",
          "122842.203000",
          "122844.703000",
          "122847.703000",
          "122850.203000",
          "122852.703000",
          "122855.203000",
          "122857.703000",
          "122900.703000",
          "122903.203000",
          "122905.703000",
          "122908.203000",
          "122910.703000",
          "122913.703000",
          "122916.203000",
          "122918.703000",
          "122921.203000",
          "122923.703000",
          "122926.703000",
          "122929.203000",
          "122931.703000",
          "122934.203000",
          "122936.703000",
          "122939.703000",
          "122942.203000",
          "122944.703000",
          "122947.203000",
          "122949.703000",
          "122952.703000",
          "122955.203000",
          "122957.703000",
          "123000.203000",
          "123002.703000",
          "123005.703000",
          "123008.203000",
          "123010.703000",
          "123013.203000",
          "123015.703000",
          "123018.703000",
          "123021.203000",
          "123023.703000",
          "123026.203000",
          "123028.703000",
          "123031.703000",
          "123034.203000",
          "123036.703000",
          "123039.203000",
          "123041.703000",
          "123044.703000",
          "123047.203000",
          "123049.703000",
          "123052.203000",
          "123054.703000",
          "123057.703000",
          "123100.203000",
          "123102.703000",
          "123105.203000",
          "123107.703000",
          "123110.703000",
          "123113.203000",
          "123115.703000",
          "123118.203000",
          "123120.703000",
          "123123.703000",
          "123126.203000",
          "123128.703000",
          "123131.203000",
          "123133.703000",
          "123136.703000",
          "123143.859000"
        ],
        "InstanceCreationTime": [
          "122516.218000",
          "122516.703000",
          "122517.203000",
          "122519.703000",
          "122522.203000",
          "122524.703000",
          "122527.203000",
          "122529.703000",
          "122532.703000",
          "122535.203000",
          "122537.703000",
          "122540.203000",
          "122542.703000",
          "122545.703000",
          "122548.203000",
          "122550.703000",
          "122553.203000",
          "122555.703000",
          "122558.703000",
          "122601.203000",
          "122603.703000",
          "122606.203000",
          "122608.703000",
          "122611.703000",
          "122614.203000",
          "122616.703000",
          "122619.203000",
          "122621.703000",
          "122624.703000",
          "122627.203000",
          "122629.703000",
          "122632.203000",
          "122634.703000",
          "122637.703000",
          "122640.203000",
          "122642.703000",
          "122645.203000",
          "122647.703000",
          "122650.703000",
          "122653.203000",
          "122655.703000",
          "122658.203000",
          "122700.703000",
          "122703.703000",
          "122706.203000",
          "122708.703000",
          "122711.203000",
          "122713.703000",
          "122716.703000",
          "122719.203000",
          "122721.703000",
          "122724.203000",
          "122726.703000",
          "122729.703000",
          "122732.203000",
          "122734.703000",
          "122737.203000",
          "122739.703000",
          "122742.703000",
          "122745.203000",
          "122747.703000",
          "122750.203000",
          "122752.703000",
          "122755.703000",
          "122758.203000",
          "122800.703000",
          "122803.203000",
          "122805.703000",
          "122808.703000",
          "122811.203000",
          "122813.703000",
          "122816.203000",
          "122818.703000",
          "122821.703000",
          "122824.203000",
          "122826.703000",
          "122829.203000",
          "122831.703000",
          "122834.703000",
          "122837.203000",
          "122839.703000",
          "122842.203000",
          "122844.703000",
          "122847.703000",
          "122850.203000",
          "122852.703000",
          "122855.203000",
          "122857.703000",
          "122900.703000",
          "122903.203000",
          "122905.703000",
          "122908.203000",
          "122910.703000",
          "122913.703000",
          "122916.203000",
          "122918.703000",
          "122921.203000",
          "122923.703000",
          "122926.703000",
          "122929.203000",
          "122931.703000",
          "122934.203000",
          "122936.703000",
          "122939.703000",
          "122942.203000",
          "122944.703000",
          "122947.203000",
          "122949.703000",
          "122952.703000",
          "122955.203000",
          "122957.703000",
          "123000.203000",
          "123002.703000",
          "123005.703000",
          "123008.203000",
          "123010.703000",
          "123013.203000",
          "123015.703000",
          "123018.703000",
          "123021.203000",
          "123023.703000",
          "123026.203000",
          "123028.703000",
          "123031.703000",
          "123034.203000",
          "123036.703000",
          "123039.203000",
          "123041.703000",
          "123044.703000",
          "123047.203000",
          "123049.703000",
          "123052.203000",
          "123054.703000",
          "123057.703000",
          "123100.203000",
          "123102.703000",
          "123105.203000",
          "123107.703000",
          "123110.703000",
          "123113.203000",
          "123115.703000",
          "123118.203000",
          "123120.703000",
          "123123.703000",
          "123126.203000",
          "123128.703000",
          "123131.203000",
          "123133.703000",
          "123136.703000",
          "123143.859000"
        ],
        "InstanceNumber": [
          1,
          2,
          3,
          4,
          5,
          6,
          7,
          8,
          9,
          10,
          11,
          12,
          13,
          14,
          15,
          16,
          17,
          18,
          19,
          20,
          21,
          22,
          23,
          24,
          25,
          26,
          27,
          28,
          29,
          30,
          31,
          32,
          33,
          34,
          35,
          36,
          37,
          38,
          39,
          40,
          41,
          42,
          43,
          44,
          45,
          46,
          47,
          48,
          49,
          50,
          51,
          52,
          53,
          54,
          55,
          56,
          57,
          58,
          59,
          60,
          61,
          62,
          63,
          64,
          65,
          66,
          67,
          68,
          69,
          70,
          71,
          72,
          73,
          74,
          75,
          76,
          77,
          78,
          79,
          80,
          81,
          82,
          83,
          84,
          85,
          86,
          87,
          88,
          89,
          90,
          91,
          92,
          93,
          94,
          95,
          96,
          97,
          98,
          99,
          100,
          101,
          102,
          103,
          104,
          105,
          106,
          107,
          108,
          109,
          110,
          111,
          112,
          113,
          114,
          115,
          116,
          117,
          118,
          119,
          120,
          121,
          122,
          123,
          124,
          125,
          126,
          127,
          128,
          129,
          130,
          131,
          132,
          133,
          134,
          135,
          136,
          137,
          138,
          139,
          140,
          141,
          142,
          143,
          144,
          145,
          146,
          147,
          148,
          149,
          150
        ],
        "WindowCenter": [
          891.0,
          889.0,
          889.0,
          888.0,
          887.0,
          887.0,
          889.0,
          890.0,
          887.0,
          887.0,
          887.0,
          888.0,
          887.0,
          888.0,
          889.0,
          887.0,
          887.0,
          889.0,
          889.0,
          888.0,
          888.0,
          889.0,
          889.0,
          889.0,
          889.0,
          890.0,
          886.0,
          885.0,
          886.0,
          886.0,
          887.0,
          888.0,
          886.0,
          888.0,
          890.0,
          890.0,
          888.0,
          888.0,
          888.0,
          892.0,
          889.0,
          886.0,
          885.0,
          886.0,
          889.0,
          888.0,
          889.0,
          888.0,
          888.0,
          888.0,
          888.0,
          886.0,
          886.0,
          887.0,
          888.0,
          889.0,
          888.0,
          890.0,
          892.0,
          889.0,
          890.0,
          888.0,
          890.0,
          892.0,
          890.0,
          891.0,
          891.0,
          889.0,
          891.0,
          891.0,
          892.0,
          891.0,
          891.0,
          890.0,
          891.0,
          894.0,
          890.0,
          888.0,
          888.0,
          890.0,
          887.0,
          886.0,
          888.0,
          888.0,
          885.0,
          888.0,
          890.0,
          889.0,
          888.0,
          888.0,
          891.0,
          893.0,
          889.0,
          889.0,
          890.0,
          893.0,
          889.0,
          890.0,
          891.0,
          890.0,
          889.0,
          891.0,
          891.0,
          888.0,
          890.0,
          891.0,
          890.0,
          893.0,
          898.0,
          892.0,
          889.0,
          888.0,
          889.0,
          890.0,
          891.0,
          892.0,
          893.0,
          892.0,
          893.0,
          894.0,
          893.0,
          892.0,
          893.0,
          893.0,
          892.0,
          889.0,
          889.0,
          892.0,
          896.0,
          892.0,
          891.0,
          890.0,
          889.0,
          890.0,
          890.0,
          890.0,
          893.0,
          891.0,
          893.0,
          892.0,
          891.0,
          892.0,
          896.0,
          890.0,
          890.0,
          891.0,
          894.0,
          895.0,
          892.0,
          893.0
        ],
        "WindowWidth": [
          2009.0,
          2003.0,
          2004.0,
          2000.0,
          1999.0,
          2000.0,
          2004.0,
          2007.0,
          1997.0,
          1997.0,
          1997.0,
          2001.0,
          1998.0,
          2000.0,
          2003.0,
          2000.0,
          2000.0,
          2005.0,
          2003.0,
          2002.0,
          2002.0,
          2006.0,
          2003.0,
          2004.0,
          2005.0,
          2006.0,
          1996.0,
          1994.0,
          1997.0,
          1997.0,
          2000.0,
          2001.0,
          1997.0,
          2003.0,
          2009.0,
          2007.0,
          2002.0,
          2000.0,
          2003.0,
          2015.0,
          2004.0,
          1996.0,
          1994.0,
          1996.0,
          2004.0,
          2003.0,
          2004.0,
          2001.0,
          2001.0,
          2003.0,
          2001.0,
          1995.0,
          1996.0,
          1999.0,
          2002.0,
          2005.0,
          2002.0,
          2007.0,
          2014.0,
          2004.0,
          2006.0,
          2001.0,
          2007.0,
          2011.0,
          2007.0,
          2011.0,
          2009.0,
          2005.0,
          2011.0,
          2009.0,
          2012.0,
          2009.0,
          2010.0,
          2007.0,
          2011.0,
          2017.0,
          2008.0,
          2002.0,
          2001.0,
          2008.0,
          1997.0,
          1995.0,
          2001.0,
          2001.0,
          1991.0,
          2001.0,
          2009.0,
          2004.0,
          2001.0,
          2001.0,
          2012.0,
          2015.0,
          2005.0,
          2004.0,
          2009.0,
          2015.0,
          2003.0,
          2007.0,
          2009.0,
          2005.0,
          2006.0,
          2010.0,
          2009.0,
          2002.0,
          2008.0,
          2010.0,
          2008.0,
          2017.0,
          2029.0,
          2011.0,
          2003.0,
          2001.0,
          2004.0,
          2006.0,
          2010.0,
          2013.0,
          2014.0,
          2014.0,
          2017.0,
          2017.0,
          2015.0,
          2012.0,
          2014.0,
          2015.0,
          2011.0,
          2004.0,
          2004.0,
          2013.0,
          2024.0,
          2013.0,
          2008.0,
          2007.0,
          2004.0,
          2007.0,
          2008.0,
          2007.0,
          2014.0,
          2009.0,
          2015.0,
          2013.0,
          2010.0,
          2013.0,
          2024.0,
          2006.0,
          2007.0,
          2011.0,
          2019.0,
          2021.0,
          2013.0,
          2015.0
        ]
      },
      "slices": {}
    }
  },
  "dummy_trs": 0,
  "dvars_nstd": 83.02331466134228,
  "dvars_std": 1.076162969463087,
  "dvars_vstd": 1.0186297640939606,
  "efc": 0.5868249477044118,
  "fber": 189.41551208496094,
  "fd_mean": 0.11983615754912266,
  "fd_num": 11,
  "fd_perc": 7.333333333333333,
  "fwhm_avg": 3.198847264443844,
  "fwhm_x": 3.05743656456268,
  "fwhm_y": 2.9765053059861244,
  "fwhm_z": 3.5625999227827263,
  "gcor": 0.00530636,
  "gsr_x": 0.02582082711160183,
  "gsr_y": 0.05469994619488716,
  "provenance": {
    "md5sum": "74100b39c56a221ec1e87eb5c6935210",
    "settings": {
      "fd_thres": 0.2,
      "testing": false
    },
    "software": "mriqc",
    "version": "22.0.6",
    "webapi_port": null,
    "webapi_url": "https://mriqc.nimh.nih.gov/api/v1"
  },
  "size_t": 150,
  "size_x": 188,
  "size_y": 188,
  "size_z": 46,
  "snr": 1.7587317322457334,
  "spacing_tr": 2.5999999046325684,
  "spacing_x": 1.0957447290420532,
  "spacing_y": 1.0957447290420532,
  "spacing_z": 1.100000023841858,
  "summary_bg_k": 31.498371359715,
  "summary_bg_mad": 40.87039964862346,
  "summary_bg_mean": 117.16547393798828,
  "summary_bg_median": 61.59333419799805,
  "summary_bg_n": 1020077.0,
  "summary_bg_p05": 28.773334503173828,
  "summary_bg_p95": 388.29467163085906,
