{
  "aor": 0.0011775333333333335,
  "aqi": 0.013664666000000002,
  "bids_meta": {
    "AcquisitionMatrixPE": 188,
    "AcquisitionNumber": 1,
    "AcquisitionTime": "12:01:30.082500",
    "BandwidthPerPixelPhaseEncode": 19.46,
    "BaseResolution": 188,
    "ConversionSoftware": "dcm2niix",
    "ConversionSoftwareVersion": "v1.0.20180606 GCC4.8.5",
    "DelayTime": 1.2,
    "DerivedVendorReportedEchoSpacing": 0.000820013,
    "DeviceSerialNumber": "18930",
    "DwellTime": 1.9e-06,
    "EchoTime": 0.02,
    "EffectiveEchoSpacing": 0.000273338,
    "FlipAngle": 80,
    "ImageComments": "Unaliased_MB2_PE2",
    "ImageOrientationPatientDICOM": [
      0.997377,
      0.0676144,
      -0.0258246,
      -0.0391664,
      0.204146,
      -0.978157
    ],
    "ImageType": [
      "ORIGINAL",
      "PRIMARY",
      "M",
      "MB",
      "ND",
      "MOSAIC"
    ],
    "InPlanePhaseEncodingDirectionDICOM": "COL",
    "InstitutionAddress": "Oxfordlaan_55_Maastricht_22AAA2_Limburg_NL_6229_EV",
    "InstitutionName": "Scannexus",
    "InstitutionalDepartmentName": "MRI_7T",
    "MRAcquisitionType": "2D",
    "MagneticFieldStrength": 6.98,
    "Manufacturer": "Siemens",
    "ManufacturersModelName": "Investigational_Device_7T",
    "Modality": "MR",
    "MultibandAccelerationFactor": 2,
    "ParallelReductionFactorInPlane": 3,
    "PartialFourier": 0.75,
    "PatientPosition": "HFS",
    "PercentPhaseFOV": 100,
    "PhaseEncodingDirection": "j",
    "PhaseEncodingSteps": 141,
    "PhaseResolution": 1,
    "PixelBandwidth": 1400,
    "ProcedureStepDescription": "FeDem_Faruk",
    "ProtocolName": "cmrr_mbep2d_bold_AP_run1",
    "PulseSequenceDetails": "%CustomerSeq%_cmrr_mbep2d_bold",
    "ReceiveCoilName": "32Ch_Head_7T",
    "ReconMatrixPE": 188,
    "RepetitionTime": 2.6,
    "SAR": 0.0419687,
    "ScanOptions": "PFP_FS",
    "ScanningSequence": "EP",
    "SequenceName": "epfid2d1_188",
    "SequenceVariant": "SK_SS",
    "SeriesDescription": "cmrr_mbep2d_bold_AP_run1",
    "SeriesNumber": 11,
    "ShimSetting": [
      29,
      -125,
      498,
      651,
      -87,
      110,
      -104,
      101
    ],
    "SliceThickness": 1.1,
    "SliceTiming": [
      0,
      0.7325,
      0.06,
      0.795,
      0.1225,
      0.855,
      0.1825,
      0.915,
      0.245,
      0.9775,
      0.305,
      1.0375,
      0.365,
      1.1,
      0.4275,
      1.16,
      0.4875,
      1.2225,
      0.55,
      1.2825,
      0.61,
      1.345,
      0.6725,
      0,
      0.7325,
      0.06,
      0.795,
      0.1225,
      0.855,
      0.1825,
      0.915,
      0.245,
      0.9775,
      0.305,
      1.0375,
      0.365,
      1.1,
      0.4275,
      1.16,
      0.4875,
      1.2225,
      0.55,
      1.2825,
      0.61,
      1.345,
      0.6725
    ],
    "SoftwareVersions": "syngo_MR_B17",
    "SpacingBetweenSlices": 1.1,
    "StationName": "MRC18930",
    "TaskName": "auditory",
    "TotalReadoutTime": 0.0511141,
    "TxRefAmp": 185,
    "dataset": "ds001942",
    "dcmmeta_affine": [
      [
        -1.092870831489563,
        -0.042916420847177505,
        0.06695205718278885,
        106.24853515625
      ],
      [
        -0.07408815622329712,
        0.2236923724412918,
        -1.0742628574371338,
        31.508892059326172
      ],
      [
        -0.02829713746905327,
        1.0718098878860474,
        0.2268851399421692,
        -110.70796966552734
      ],
      [
        0.0,
        0.0,
        0.0,
        1.0
      ]
    ],
    "dcmmeta_reorient_transform": [
      [
        0.0,
        -1.0,
        0.0,
        187.0
      ],
      [
        1.0,
        0.0,
        0.0,
        0.0
      ],
      [
        0.0,
        0.0,
        1.0,
        0.0
      ],
      [
        0.0,
        0.0,
        0.0,
        1.0
      ]
    ],
    "dcmmeta_shape": [
      188,
      188,
      46,
      150
    ],
    "dcmmeta_slice_dim": 2,
    "dcmmeta_version": 0.6,
    "global": {
      "const": {
        "AcquisitionMatrix": [
          188,
          0,
          0,
          188
        ],
        "AngioFlag": "N",
        "BitsAllocated": 16,
        "BitsStored": 12,
        "Columns": 1316,
        "EchoNumbers": 1,
        "EchoTime": 20.0,
        "EchoTrainLength": 1,
        "FlipAngle": 80.0,
        "HighBit": 11,
        "ImageOrientationPatient": [
          0.99737725082036,
          0.06761442976105,
          -0.0258245703568,
          -0.0391664402851,
          0.20414642335628,
          -0.978156545644
        ],
        "ImagePositionPatient": [
          -690.3974688749,
          -241.2875794731,
          710.18083555516
        ],
        "ImageType": [
          "ORIGINAL",
          "PRIMARY",
          "M",
          "MB",
          "ND",
          "MOSAIC"
        ],
        "ImagedNucleus": "1H",
        "ImagingFrequency": 297.205576,
        "InPlanePhaseEncodingDirection": "COL",
        "LargestImagePixelValue": 4095,
        "MRAcquisitionType": "2D",
        "MagneticFieldStrength": 6.98,
        "Manufacturer": "SIEMENS",
        "ManufacturerModelName": "Investigational_Device_7T",
        "Modality": "MR",
        "NumberOfAverages": 1.0,
        "NumberOfPhaseEncodingSteps": 141,
        "PercentPhaseFieldOfView": 100.0,
        "PercentSampling": 100.0,
        "PerformedProcedureStepStartTime": "111801.937000",
        "PhotometricInterpretation": "MONOCHROME2",
        "PixelBandwidth": 1400.0,
        "PixelRepresentation": 0,
        "PixelSpacing": [
          1.0957447290421,
          1.0957447290421
        ],
        "ProtocolName": "cmrr_mbep2d_bold_AP_run1",
        "RepetitionTime": 2600.0,
        "Rows": 1316,
        "SAR": 0.04196873798656,
        "SamplesPerPixel": 1,
        "ScanOptions": [
          "PFP",
          "FS"
        ],
        "ScanningSequence": "EP",
        "SequenceName": "epfid2d1_188",
        "SequenceVariant": [
          "SK",
          "SS"
        ],
        "SeriesDescription": "cmrr_mbep2d_bold_AP_run1",
        "SeriesNumber": 11,
        "SeriesTime": "120138.453000",
        "SliceLocation": -47.139332537884,
        "SliceThickness": 1.1000000238419,
        "SmallestImagePixelValue": 0,
        "SoftwareVersions": "syngo MR B17",
        "SpacingBetweenSlices": 1.1000000344112,
        "SpecificCharacterSet": "ISO_IR 100",
        "StudyID": "1",
        "StudyTime": "111801.890000",
        "TransmitCoilName": "32Ch_Head_7T",
        "VariableFlipAngleFlag": "N",
        "WindowCenterWidthExplanation": "Algo1",
        "dBdt": 0.0
      },
      "slices": {}
    },
    "modality": "bold",
    "run_id": 1,
    "session_id": "SES02",
    "subject_id": "S05",
    "task_id": "auditory",
    "time": {
      "samples": {
        "AcquisitionNumber": [
          1,
          2,
          3,
          4,
          5,
          6,
          7,
          8,
          9,
          10,
          11,
          12,
          13,
          14,
          15,
          16,
          17,
          18,
          19,
          20,
          21,
          22,
          23,
          24,
          25,
          26,
          27,
          28,
          29,
          30,
          31,
          32,
          33,
          34,
          35,
          36,
          37,
          38,
          39,
          40,
          41,
          42,
          43,
          44,
          45,
          46,
          47,
          48,
          49,
          50,
          51,
          52,
          53,
          54,
          55,
          56,
          57,
          58,
          59,
          60,
          61,
          62,
          63,
          64,
          65,
          66,
          67,
          68,
          69,
          70,
          71,
          72,
          73,
          74,
          75,
          76,
          77,
          78,
          79,
          80,
          81,
          82,
          83,
          84,
          85,
          86,
          87,
          88,
          89,
          90,
          91,
          92,
          93,
          94,
          95,
          96,
          97,
          98,
          99,
          100,
          101,
          102,
          103,
          104,
          105,
          106,
          107,
          108,
          109,
          110,
          111,
          112,
          113,
          114,
          115,
          116,
          117,
          118,
          119,
          120,
          121,
          122,
          123,
          124,
          125,
          126,
          127,
          128,
          129,
          130,
          131,
          132,
          133,
          134,
          135,
          136,
          137,
          138,
          139,
          140,
          141,
          142,
          143,
          144,
          145,
          146,
          147,
          148,
          149,
          150
        ],
        "AcquisitionTime": [
          "120130.082500",
          "120132.692500",
          "120135.302500",
          "120137.912500",
          "120140.525000",
          "120143.135000",
          "120145.745000",
          "120148.355000",
          "120150.965000",
          "120153.575000",
          "120156.187500",
          "120158.797500",
          "120201.407500",
          "120204.017500",
          "120206.627500",
          "120209.237500",
          "120211.850000",
          "120214.460000",
          "120217.070000",
          "120219.680000",
          "120222.290000",
          "120224.902500",
          "120227.512500",
          "120230.122500",
          "120232.732500",
          "120235.342500",
          "120237.952500",
          "120240.565000",
          "120243.175000",
          "120245.785000",
          "120248.395000",
          "120251.005000",
          "120253.615000",
          "120256.227500",
          "120258.837500",
          "120301.447500",
          "120304.057500",
          "120306.667500",
          "120309.280000",
          "120311.890000",
          "120314.500000",
          "120317.110000",
          "120319.720000",
          "120322.330000",
          "120324.942500",
          "120327.552500",
          "120330.162500",
          "120332.772500",
          "120335.382500",
          "120337.992500",
          "120340.605000",
          "120343.215000",
          "120345.825000",
          "120348.435000",
          "120351.045000",
          "120353.657500",
          "120356.267500",
          "120358.877500",
          "120401.487500",
          "120404.097500",
          "120406.707500",
          "120409.320000",
          "120411.930000",
          "120414.540000",
          "120417.150000",
          "120419.760000",
          "120422.370000",
          "120424.982500",
          "120427.592500",
          "120430.202500",
          "120432.812500",
          "120435.422500",
          "120438.035000",
          "120440.645000",
          "120443.255000",
          "120445.865000",
          "120448.475000",
          "120451.085000",
          "120453.697500",
          "120456.307500",
          "120458.917500",
          "120501.527500",
          "120504.137500",
          "120506.747500",
          "120509.360000",
          "120511.970000",
          "120514.580000",
          "120517.190000",
          "120519.800000",
          "120522.412500",
          "120525.022500",
          "120527.632500",
          "120530.242500",
          "120532.852500",
          "120535.462500",
          "120538.075000",
          "120540.685000",
          "120543.295000",
          "120545.905000",
          "120548.515000",
          "120551.125000",
          "120553.737500",
          "120556.347500",
          "120558.957500",
          "120601.567500",
          "120604.177500",
          "120606.790000",
          "120609.400000",
          "120612.010000",
          "120614.620000",
          "120617.230000",
          "120619.840000",
          "120622.452500",
          "120625.062500",
          "120627.672500",
          "120630.282500",
          "120632.892500",
          "120635.502500",
          "120638.115000",
          "120640.725000",
          "120643.335000",
          "120645.945000",
          "120648.555000",
          "120651.167500",
          "120653.777500",
          "120656.387500",
          "120658.997500",
          "120701.607500",
          "120704.217500",
          "120706.830000",
          "120709.440000",
          "120712.050000",
          "120714.660000",
          "120717.270000",
          "120719.880000",
          "120722.492500",
          "120725.102500",
          "120727.712500",
          "120730.322500",
          "120732.932500",
          "120735.545000",
          "120738.155000",
          "120740.765000",
          "120743.375000",
          "120745.985000",
          "120748.595000",
          "120751.207500",
          "120753.817500",
          "120756.427500",
          "120759.037500"
        ],
        "ContentTime": [
          "120138.453000",
          "120138.937000",
          "120139.437000",
          "120141.937000",
          "120144.437000",
          "120146.937000",
          "120149.437000",
          "120152.437000",
          "120154.937000",
          "120157.437000",
          "120159.937000",
          "120202.437000",
          "120205.437000",
          "120207.937000",
          "120210.437000",
          "120212.937000",
          "120215.437000",
          "120218.437000",
          "120220.937000",
          "120223.437000",
          "120225.937000",
          "120228.437000",
          "120231.437000",
          "120233.937000",
          "120236.437000",
          "120238.937000",
          "120241.437000",
          "120244.437000",
          "120246.937000",
          "120249.453000",
          "120251.937000",
          "120254.437000",
          "120257.437000",
          "120259.937000",
          "120302.437000",
          "120304.937000",
          "120307.937000",
          "120310.437000",
          "120312.937000",
          "120315.437000",
          "120317.937000",
          "120320.953000",
          "120323.437000",
          "120325.937000",
          "120328.437000",
          "120330.937000",
          "120333.437000",
          "120336.437000",
          "120338.937000",
          "120341.437000",
          "120343.937000",
          "120346.437000",
          "120349.437000",
          "120351.953000",
          "120354.437000",
          "120356.937000",
          "120359.437000",
          "120402.437000",
          "120404.937000",
          "120407.437000",
          "120409.937000",
          "120412.453000",
          "120415.437000",
          "120417.937000",
          "120420.437000",
          "120422.937000",
          "120425.437000",
          "120428.437000",
          "120430.937000",
          "120433.437000",
          "120435.937000",
          "120438.437000",
          "120441.437000",
          "120443.937000",
          "120446.437000",
          "120448.937000",
          "120451.437000",
          "120454.437000",
          "120456.937000",
          "120459.453000",
          "120501.937000",
          "120504.437000",
          "120507.437000",
          "120509.953000",
          "120512.437000",
          "120514.937000",
          "120517.437000",
          "120520.437000",
          "120522.937000",
          "120525.437000",
          "120527.937000",
          "120530.437000",
          "120533.437000",
          "120535.937000",
          "120538.437000",
          "120540.937000",
          "120543.437000",
          "120546.437000",
          "120548.937000",
          "120551.437000",
          "120553.937000",
          "120556.437000",
          "120559.437000",
          "120601.937000",
          "120604.437000",
          "120606.937000",
          "120609.437000",
          "120612.437000",
          "120614.937000",
          "120617.437000",
          "120619.937000",
          "120622.437000",
          "120625.437000",
          "120627.937000",
          "120630.437000",
          "120632.937000",
          "120635.437000",
          "120638.437000",
          "120640.937000",
          "120643.437000",
          "120645.953000",
          "120648.437000",
          "120651.453000",
          "120653.937000",
          "120656.437000",
          "120658.937000",
          "120701.437000",
          "120704.437000",
          "120706.937000",
          "120709.437000",
          "120711.937000",
          "120714.437000",
          "120717.437000",
          "120719.937000",
          "120722.437000",
          "120724.937000",
          "120727.437000",
          "120730.437000",
          "120732.937000",
          "120735.437000",
          "120737.937000",
          "120740.437000",
          "120743.437000",
          "120745.937000",
          "120748.437000",
          "120750.937000",
          "120753.437000",
          "120756.453000",
          "120758.937000",
          "120806.218000"
        ],
        "InstanceCreationTime": [
          "120138.453000",
          "120138.937000",
          "120139.437000",
          "120141.937000",
          "120144.437000",
          "120146.937000",
          "120149.437000",
          "120152.437000",
          "120154.937000",
          "120157.437000",
          "120159.937000",
          "120202.437000",
          "120205.437000",
          "120207.937000",
          "120210.437000",
          "120212.937000",
          "120215.437000",
          "120218.437000",
          "120220.937000",
          "120223.437000",
          "120225.937000",
          "120228.437000",
          "120231.437000",
          "120233.937000",
          "120236.437000",
          "120238.937000",
          "120241.437000",
          "120244.437000",
          "120246.937000",
          "120249.453000",
          "120251.937000",
          "120254.437000",
          "120257.437000",
          "120259.937000",
          "120302.437000",
          "120304.937000",
          "120307.937000",
          "120310.437000",
          "120312.937000",
          "120315.437000",
          "120317.937000",
          "120320.953000",
          "120323.437000",
          "120325.937000",
          "120328.437000",
          "120330.937000",
          "120333.437000",
          "120336.437000",
          "120338.937000",
          "120341.437000",
          "120343.937000",
          "120346.437000",
          "120349.437000",
          "120351.953000",
          "120354.437000",
          "120356.937000",
          "120359.437000",
          "120402.437000",
          "120404.937000",
          "120407.437000",
          "120409.937000",
          "120412.453000",
          "120415.437000",
          "120417.937000",
          "120420.437000",
          "120422.937000",
          "120425.437000",
          "120428.437000",
          "120430.937000",
          "120433.437000",
          "120435.937000",
          "120438.437000",
          "120441.437000",
          "120443.937000",
          "120446.437000",
          "120448.937000",
          "120451.437000",
          "120454.437000",
          "120456.937000",
          "120459.453000",
          "120501.937000",
          "120504.437000",
          "120507.437000",
          "120509.953000",
          "120512.437000",
          "120514.937000",
          "120517.437000",
          "120520.437000",
          "120522.937000",
          "120525.437000",
          "120527.937000",
          "120530.437000",
          "120533.437000",
          "120535.937000",
          "120538.437000",
          "120540.937000",
          "120543.437000",
          "120546.437000",
          "120548.937000",
          "120551.437000",
          "120553.937000",
          "120556.437000",
          "120559.437000",
          "120601.937000",
          "120604.437000",
          "120606.937000",
          "120609.437000",
          "120612.437000",
          "120614.937000",
          "120617.437000",
          "120619.937000",
          "120622.437000",
          "120625.437000",
          "120627.937000",
          "120630.437000",
          "120632.937000",
          "120635.437000",
          "120638.437000",
          "120640.937000",
          "120643.437000",
          "120645.953000",
          "120648.437000",
          "120651.453000",
          "120653.937000",
          "120656.437000",
          "120658.937000",
          "120701.437000",
          "120704.437000",
          "120706.937000",
          "120709.437000",
          "120711.937000",
          "120714.437000",
          "120717.437000",
          "120719.937000",
          "120722.437000",
          "120724.937000",
          "120727.437000",
          "120730.437000",
          "120732.937000",
          "120735.437000",
          "120737.937000",
          "120740.437000",
          "120743.437000",
          "120745.937000",
          "120748.437000",
          "120750.937000",
          "120753.437000",
          "120756.453000",
          "120758.937000",
          "120806.218000"
        ],
        "InstanceNumber": [
          1,
          2,
          3,
          4,
          5,
          6,
          7,
          8,
          9,
          10,
          11,
          12,
          13,
          14,
          15,
          16,
          17,
          18,
          19,
          20,
          21,
          22,
          23,
          24,
          25,
          26,
          27,
          28,
          29,
          30,
          31,
          32,
          33,
          34,
          35,
          36,
          37,
          38,
          39,
          40,
          41,
          42,
          43,
          44,
          45,
          46,
          47,
          48,
          49,
          50,
          51,
          52,
          53,
          54,
          55,
          56,
          57,
          58,
          59,
          60,
          61,
          62,
          63,
          64,
          65,
          66,
          67,
          68,
          69,
          70,
          71,
          72,
          73,
          74,
          75,
          76,
          77,
          78,
          79,
          80,
          81,
          82,
          83,
          84,
          85,
          86,
          87,
          88,
          89,
          90,
          91,
          92,
          93,
          94,
          95,
          96,
          97,
          98,
          99,
          100,
          101,
          102,
          103,
          104,
          105,
          106,
          107,
          108,
          109,
          110,
          111,
          112,
          113,
          114,
          115,
          116,
          117,
          118,
          119,
          120,
          121,
          122,
          123,
          124,
          125,
          126,
          127,
          128,
          129,
          130,
          131,
          132,
          133,
          134,
          135,
          136,
          137,
          138,
          139,
          140,
          141,
          142,
          143,
          144,
          145,
          146,
          147,
          148,
          149,
          150
        ],
        "WindowCenter": [
          894.0,
          890.0,
          895.0,
          892.0,
          891.0,
          891.0,
          891.0,
          891.0,
          891.0,
          892.0,
          892.0,
          891.0,
          891.0,
          892.0,
          891.0,
          890.0,
          890.0,
          890.0,
          891.0,
          891.0,
          891.0,
          889.0,
          890.0,
          889.0,
          890.0,
          891.0,
          891.0,
          890.0,
          888.0,
          890.0,
          890.0,
          888.0,
          889.0,
          888.0,
          889.0,
          889.0,
          889.0,
          889.0,
          889.0,
          890.0,
          893.0,
          889.0,
          890.0,
          890.0,
          889.0,
          889.0,
          890.0,
          888.0,
          890.0,
          889.0,
          887.0,
          888.0,
          890.0,
          889.0,
          888.0,
          889.0,
          889.0,
          888.0,
          890.0,
          890.0,
          889.0,
          890.0,
          889.0,
          889.0,
          889.0,
          890.0,
          888.0,
          889.0,
          893.0,
          891.0,
          888.0,
          890.0,
          891.0,
          888.0,
          887.0,
          890.0,
          890.0,
          891.0,
          891.0,
          891.0,
          889.0,
          889.0,
          889.0,
          888.0,
          889.0,
          892.0,
          887.0,
          887.0,
          889.0,
          888.0,
          887.0,
          889.0,
          890.0,
          888.0,
          888.0,
          888.0,
          888.0,
          888.0,
          889.0,
          887.0,
          889.0,
          888.0,
          888.0,
          889.0,
          888.0,
          890.0,
          889.0,
          890.0,
          890.0,
          889.0,
          889.0,
          889.0,
          891.0,
          889.0,
          888.0,
          890.0,
          889.0,
          891.0,
          889.0,
          889.0,
          889.0,
          888.0,
          888.0,
          888.0,
          888.0,
          888.0,
          889.0,
          889.0,
          891.0,
          891.0,
          889.0,
          889.0,
          890.0,
          891.0,
          891.0,
          890.0,
          890.0,
          892.0,
          891.0,
          892.0,
          890.0,
          890.0,
          891.0,
          894.0,
          890.0,
          889.0,
          890.0,
          890.0,
          892.0,
          890.0
        ],
        "WindowWidth": [
          2019.0,
          2007.0,
          2022.0,
          2011.0,
          2008.0,
          2009.0,
          2010.0,
          2010.0,
          2011.0,
          2011.0,
          2012.0,
          2010.0,
          2009.0,
          2012.0,
          2010.0,
          2008.0,
          2006.0,
          2007.0,
          2011.0,
          2009.0,
          2009.0,
          2005.0,
          2008.0,
          2005.0,
          2009.0,
          2009.0,
          2009.0,
          2008.0,
          2001.0,
          2007.0,
          2007.0,
          2001.0,
          2006.0,
          2003.0,
          2004.0,
          2004.0,
          2005.0,
          2004.0,
          2005.0,
          2008.0,
          2015.0,
          2005.0,
          2008.0,
          2007.0,
          2005.0,
          2006.0,
          2008.0,
          2002.0,
          2007.0,
          2006.0,
          2000.0,
          2002.0,
          2007.0,
          2004.0,
          2001.0,
          2004.0,
          2004.0,
          2002.0,
          2009.0,
          2008.0,
          2005.0,
          2007.0,
          2006.0,
          2004.0,
          2006.0,
          2006.0,
          2002.0,
          2005.0,
          2016.0,
          2010.0,
          2000.0,
          2008.0,
          2010.0,
          2001.0,
          2000.0,
          2006.0,
          2007.0,
          2010.0,
          2010.0,
          2009.0,
          2004.0,
          2005.0,
          2005.0,
          2002.0,
          2005.0,
          2012.0,
          2000.0,
          1998.0,
          2004.0,
          2002.0,
          1999.0,
          2006.0,
          2007.0,
          2002.0,
          2001.0,
          2000.0,
          2000.0,
          2003.0,
          2003.0,
          1999.0,
          2006.0,
          2001.0,
          2002.0,
          2005.0,
          2002.0,
          2007.0,
          2004.0,
          2007.0,
          2008.0,
          2005.0,
          2004.0,
          2007.0,
          2012.0,
          2003.0,
          2003.0,
          2007.0,
          2006.0,
          2011.0,
          2004.0,
          2005.0,
          2006.0,
          2003.0,
          2001.0,
          2002.0,
          2003.0,
          2003.0,
          2004.0,
          2006.0,
          2011.0,
          2009.0,
          2005.0,
          2006.0,
          2006.0,
          2009.0,
          2010.0,
          2006.0,
          2006.0,
          2012.0,
          2009.0,
          2012.0,
          2008.0,
          2006.0,
          2009.0,
          2017.0,
          2007.0,
          2003.0,
          2008.0,
          2006.0,
          2012.0,
          2007.0
        ]
      },
      "slices": {}
    }
  },
  "dummy_trs": 0,
  "dvars_nstd": 80.63775260986581,
  "dvars_std": 1.0803739715436242,
  "dvars_vstd": 1.0316329359731544,
  "efc": 0.5860447392318544,
  "fber": 197.895751953125,
  "fd_mean": 0.11191523643484379,
  "fd_num": 9,
  "fd_perc": 6.0,
  "fwhm_avg": 3.174466871044976,
  "fwhm_x": 3.042223167173515,
  "fwhm_y": 2.9505229770317434,
  "fwhm_z": 3.5306544689296704,
  "gcor": 0.00254857,
  "gsr_x": 0.02397669292986393,
  "gsr_y": 0.0567157045006752,
  "provenance": {
    "md5sum": "49d956aacb0a0248ab64e9b8ab95c590",
    "settings": {
      "fd_thres": 0.2,
      "testing": false
    },
    "software": "mriqc",
    "version": "23.0.1",
    "webapi_port": null,
    "webapi_url": "https://mriqc.nimh.nih.gov/api/v1"
  },
  "size_t": 150,
  "size_x": 188,
  "size_y": 188,
  "size_z": 46,
  "snr": 1.7588834894690175,
  "spacing_tr": 2.5999999046325684,
  "spacing_x": 1.0957447290420532,
  "spacing_y": 1.0957447290420532,
  "spacing_z": 1.100000023841858,
  "summary_bg_k": 31.86557366206089,
  "summary_bg_mad": 39.59536083580006,
  "summary_bg_mean": 116.43013763427734,
  "summary_bg_median": 60.48666763305664,
  "summary_bg_n": 1020041.0,
  "summary_bg_p05": 28.84000015258789,
  "summary_bg_p95": 388.46002197265625,
