{
  "aor": 0.0009538000000000002,
  "aqi": 0.015620892666666665,
  "bids_meta": {
    "AcquisitionMatrixPE": 188,
    "AcquisitionNumber": 1,
    "AcquisitionTime": "12:40:48.077500",
    "BandwidthPerPixelPhaseEncode": 19.46,
    "BaseResolution": 188,
    "ConversionSoftware": "dcm2niix",
    "ConversionSoftwareVersion": "v1.0.20180606 GCC4.8.5",
    "DelayTime": 1.2,
    "DerivedVendorReportedEchoSpacing": 0.000820013,
    "DeviceSerialNumber": "18930",
    "DwellTime": 1.9e-06,
    "EchoTime": 0.02,
    "EffectiveEchoSpacing": 0.000273338,
    "FlipAngle": 80,
    "ImageComments": "Unaliased_MB2_PE2",
    "ImageOrientationPatientDICOM": [
      0.997377,
      0.0676144,
      -0.0258246,
      -0.0391664,
      0.204146,
      -0.978157
    ],
    "ImageType": [
      "ORIGINAL",
      "PRIMARY",
      "M",
      "MB",
      "ND",
      "MOSAIC"
    ],
    "InPlanePhaseEncodingDirectionDICOM": "COL",
    "InstitutionAddress": "Oxfordlaan_55_Maastricht_22AAA2_Limburg_NL_6229_EV",
    "InstitutionName": "Scannexus",
    "InstitutionalDepartmentName": "MRI_7T",
    "MRAcquisitionType": "2D",
    "MagneticFieldStrength": 6.98,
    "Manufacturer": "Siemens",
    "ManufacturersModelName": "Investigational_Device_7T",
    "Modality": "MR",
    "MultibandAccelerationFactor": 2,
    "ParallelReductionFactorInPlane": 3,
    "PartialFourier": 0.75,
    "PatientPosition": "HFS",
    "PercentPhaseFOV": 100,
    "PhaseEncodingDirection": "j",
    "PhaseEncodingSteps": 141,
    "PhaseResolution": 1,
    "PixelBandwidth": 1400,
    "ProcedureStepDescription": "FeDem_Faruk",
    "ProtocolName": "cmrr_mbep2d_bold_AP_run6",
    "PulseSequenceDetails": "%CustomerSeq%_cmrr_mbep2d_bold",
    "ReceiveCoilName": "32Ch_Head_7T",
    "ReconMatrixPE": 188,
    "RepetitionTime": 2.6,
    "SAR": 0.0423346,
    "ScanOptions": "PFP_FS",
    "ScanningSequence": "EP",
    "SequenceName": "epfid2d1_188",
    "SequenceVariant": "SK_SS",
    "SeriesDescription": "cmrr_mbep2d_bold_AP_run6",
    "SeriesNumber": 16,
    "ShimSetting": [
      29,
      -125,
      498,
      651,
      -87,
      110,
      -104,
      101
    ],
    "SliceThickness": 1.1,
    "SliceTiming": [
      0,
      0.7325,
      0.06,
      0.7925,
      0.1225,
      0.855,
      0.1825,
      0.915,
      0.245,
      0.9775,
      0.305,
      1.0375,
      0.365,
      1.1,
      0.4275,
      1.16,
      0.4875,
      1.2225,
      0.55,
      1.2825,
      0.61,
      1.3425,
      0.6725,
      0,
      0.7325,
      0.06,
      0.7925,
      0.1225,
      0.855,
      0.1825,
      0.915,
      0.245,
      0.9775,
      0.305,
      1.0375,
      0.365,
      1.1,
      0.4275,
      1.16,
      0.4875,
      1.2225,
      0.55,
      1.2825,
      0.61,
      1.3425,
      0.6725
    ],
    "SoftwareVersions": "syngo_MR_B17",
    "SpacingBetweenSlices": 1.1,
    "StationName": "MRC18930",
    "TaskName": "auditory",
    "TotalReadoutTime": 0.0511141,
    "TxRefAmp": 185,
    "dataset": "ds001942",
    "dcmmeta_affine": [
      [
        -1.092870831489563,
        -0.042916420847177505,
        0.06695205718278885,
        106.24853515625
      ],
      [
        -0.07408815622329712,
        0.2236923724412918,
        -1.0742628574371338,
        31.508892059326172
      ],
      [
        -0.02829713746905327,
        1.0718098878860474,
        0.2268851399421692,
        -110.70796966552734
      ],
      [
        0.0,
        0.0,
        0.0,
        1.0
      ]
    ],
    "dcmmeta_reorient_transform": [
      [
        0.0,
        -1.0,
        0.0,
        187.0
      ],
      [
        1.0,
        0.0,
        0.0,
        0.0
      ],
      [
        0.0,
        0.0,
        1.0,
        0.0
      ],
      [
        0.0,
        0.0,
        0.0,
        1.0
      ]
    ],
    "dcmmeta_shape": [
      188,
      188,
      46,
      150
    ],
    "dcmmeta_slice_dim": 2,
    "dcmmeta_version": 0.6,
    "global": {
      "const": {
        "AcquisitionMatrix": [
          188,
          0,
          0,
          188
        ],
        "AngioFlag": "N",
        "BitsAllocated": 16,
        "BitsStored": 12,
        "Columns": 1316,
        "EchoNumbers": 1,
        "EchoTime": 20.0,
        "EchoTrainLength": 1,
        "FlipAngle": 80.0,
        "HighBit": 11,
        "ImageOrientationPatient": [
          0.99737725082036,
          0.06761442976105,
          -0.0258245703568,
          -0.0391664402851,
          0.20414642335628,
          -0.978156545644
        ],
        "ImagePositionPatient": [
          -690.3974688749,
          -241.2875794731,
          710.18083555516
        ],
        "ImageType": [
          "ORIGINAL",
          "PRIMARY",
          "M",
          "MB",
          "ND",
          "MOSAIC"
        ],
        "ImagedNucleus": "1H",
        "ImagingFrequency": 297.205596,
        "InPlanePhaseEncodingDirection": "COL",
        "LargestImagePixelValue": 4095,
        "MRAcquisitionType": "2D",
        "MagneticFieldStrength": 6.98,
        "Manufacturer": "SIEMENS",
        "ManufacturerModelName": "Investigational_Device_7T",
        "Modality": "MR",
        "NumberOfAverages": 1.0,
        "NumberOfPhaseEncodingSteps": 141,
        "PercentPhaseFieldOfView": 100.0,
        "PercentSampling": 100.0,
        "PerformedProcedureStepStartTime": "111801.937000",
        "PhotometricInterpretation": "MONOCHROME2",
        "PixelBandwidth": 1400.0,
        "PixelRepresentation": 0,
        "PixelSpacing": [
          1.0957447290421,
          1.0957447290421
        ],
        "ProtocolName": "cmrr_mbep2d_bold_AP_run6",
        "RepetitionTime": 2600.0,
        "Rows": 1316,
        "SAR": 0.04233459922173,
        "SamplesPerPixel": 1,
        "ScanOptions": [
          "PFP",
          "FS"
        ],
        "ScanningSequence": "EP",
        "SequenceName": "epfid2d1_188",
        "SequenceVariant": [
          "SK",
          "SS"
        ],
        "SeriesDescription": "cmrr_mbep2d_bold_AP_run6",
        "SeriesNumber": 16,
        "SeriesTime": "124056.593000",
        "SliceLocation": -47.139332537884,
        "SliceThickness": 1.1000000238419,
        "SmallestImagePixelValue": 0,
        "SoftwareVersions": "syngo MR B17",
        "SpacingBetweenSlices": 1.1000000344112,
        "SpecificCharacterSet": "ISO_IR 100",
        "StudyID": "1",
        "StudyTime": "111801.890000",
        "TransmitCoilName": "32Ch_Head_7T",
        "VariableFlipAngleFlag": "N",
        "WindowCenterWidthExplanation": "Algo1",
        "dBdt": 0.0
      },
      "slices": {}
    },
    "modality": "bold",
    "run_id": 6,
    "session_id": "SES02",
    "subject_id": "S05",
    "task_id": "auditory",
    "time": {
      "samples": {
        "AcquisitionNumber": [
          1,
          2,
          3,
          4,
          5,
          6,
          7,
          8,
          9,
          10,
          11,
          12,
          13,
          14,
          15,
          16,
          17,
          18,
          19,
          20,
          21,
          22,
          23,
          24,
          25,
          26,
          27,
          28,
          29,
          30,
          31,
          32,
          33,
          34,
          35,
          36,
          37,
          38,
          39,
          40,
          41,
          42,
          43,
          44,
          45,
          46,
          47,
          48,
          49,
          50,
          51,
          52,
          53,
          54,
          55,
          56,
          57,
          58,
          59,
          60,
          61,
          62,
          63,
          64,
          65,
          66,
          67,
          68,
          69,
          70,
          71,
          72,
          73,
          74,
          75,
          76,
          77,
          78,
          79,
          80,
          81,
          82,
          83,
          84,
          85,
          86,
          87,
          88,
          89,
          90,
          91,
          92,
          93,
          94,
          95,
          96,
          97,
          98,
          99,
          100,
          101,
          102,
          103,
          104,
          105,
          106,
          107,
          108,
          109,
          110,
          111,
          112,
          113,
          114,
          115,
          116,
          117,
          118,
          119,
          120,
          121,
          122,
          123,
          124,
          125,
          126,
          127,
          128,
          129,
          130,
          131,
          132,
          133,
          134,
          135,
          136,
          137,
          138,
          139,
          140,
          141,
          142,
          143,
          144,
          145,
          146,
          147,
          148,
          149,
          150
        ],
        "AcquisitionTime": [
          "124048.077500",
          "124050.687500",
          "124053.297500",
          "124055.907500",
          "124058.517500",
          "124101.130000",
          "124103.740000",
          "124106.350000",
          "124108.960000",
          "124111.570000",
          "124114.182500",
          "124116.792500",
          "124119.402500",
          "124122.012500",
          "124124.622500",
          "124127.232500",
          "124129.845000",
          "124132.455000",
          "124135.065000",
          "124137.675000",
          "124140.285000",
          "124142.895000",
          "124145.507500",
          "124148.117500",
          "124150.727500",
          "124153.337500",
          "124155.947500",
          "124158.560000",
          "124201.170000",
          "124203.780000",
          "124206.390000",
          "124209.000000",
          "124211.610000",
          "124214.222500",
          "124216.832500",
          "124219.442500",
          "124222.052500",
          "124224.662500",
          "124227.272500",
          "124229.885000",
          "124232.495000",
          "124235.105000",
          "124237.715000",
          "124240.325000",
          "124242.937500",
          "124245.547500",
          "124248.157500",
          "124250.767500",
          "124253.377500",
          "124255.987500",
          "124258.600000",
          "124301.210000",
          "124303.820000",
          "124306.430000",
          "124309.040000",
          "124311.650000",
          "124314.262500",
          "124316.872500",
          "124319.482500",
          "124322.092500",
          "124324.702500",
          "124327.315000",
          "124329.925000",
          "124332.535000",
          "124335.145000",
          "124337.755000",
          "124340.365000",
          "124342.977500",
          "124345.587500",
          "124348.197500",
          "124350.807500",
          "124353.417500",
          "124356.027500",
          "124358.640000",
          "124401.250000",
          "124403.860000",
          "124406.470000",
          "124409.080000",
          "124411.692500",
          "124414.302500",
          "124416.912500",
          "124419.522500",
          "124422.132500",
          "124424.742500",
          "124427.355000",
          "124429.965000",
          "124432.575000",
          "124435.185000",
          "124437.795000",
          "124440.405000",
          "124443.017500",
          "124445.627500",
          "124448.237500",
          "124450.847500",
          "124453.457500",
          "124456.070000",
          "124458.680000",
          "124501.290000",
          "124503.900000",
          "124506.510000",
          "124509.120000",
          "124511.732500",
          "124514.342500",
          "124516.952500",
          "124519.562500",
          "124522.172500",
          "124524.782500",
          "124527.395000",
          "124530.005000",
          "124532.615000",
          "124535.225000",
          "124537.835000",
          "124540.447500",
          "124543.057500",
          "124545.667500",
          "124548.277500",
          "124550.887500",
          "124553.497500",
          "124556.110000",
          "124558.720000",
          "124601.330000",
          "124603.940000",
          "124606.550000",
          "124609.160000",
          "124611.772500",
          "124614.382500",
          "124616.992500",
          "124619.602500",
          "124622.212500",
          "124624.825000",
          "124627.435000",
          "124630.045000",
          "124632.655000",
          "124635.265000",
          "124637.875000",
          "124640.487500",
          "124643.097500",
          "124645.707500",
          "124648.317500",
          "124650.927500",
          "124653.537500",
          "124656.150000",
          "124658.760000",
          "124701.370000",
          "124703.980000",
          "124706.590000",
          "124709.202500",
          "124711.812500",
          "124714.422500",
          "124717.032500"
        ],
        "ContentTime": [
          "124056.593000",
          "124057.093000",
          "124057.593000",
          "124100.093000",
          "124102.593000",
          "124105.093000",
          "124107.593000",
          "124110.593000",
          "124113.093000",
          "124115.593000",
          "124118.093000",
          "124120.593000",
          "124123.593000",
          "124126.093000",
          "124128.593000",
          "124131.093000",
          "124133.593000",
          "124136.593000",
          "124139.093000",
          "124141.593000",
          "124144.093000",
          "124146.593000",
          "124149.593000",
          "124152.093000",
          "124154.593000",
          "124157.093000",
          "124159.593000",
          "124202.593000",
          "124205.093000",
          "124207.593000",
          "124210.093000",
          "124212.593000",
          "124215.578000",
          "124218.093000",
          "124220.578000",
          "124223.093000",
          "124225.593000",
          "124228.578000",
          "124231.093000",
          "124233.593000",
          "124236.093000",
          "124238.593000",
          "124241.593000",
          "124244.078000",
          "124246.593000",
          "124249.093000",
          "124251.593000",
          "124254.593000",
          "124257.093000",
          "124259.593000",
          "124302.093000",
          "124304.593000",
          "124307.593000",
          "124310.093000",
          "124312.593000",
          "124315.093000",
          "124317.593000",
          "124320.593000",
          "124323.093000",
          "124325.593000",
          "124328.093000",
          "124330.593000",
          "124333.593000",
          "124336.093000",
          "124338.593000",
          "124341.093000",
          "124343.593000",
          "124346.593000",
          "124349.093000",
          "124351.593000",
          "124354.093000",
          "124356.593000",
          "124359.593000",
          "124402.093000",
          "124404.593000",
          "124407.093000",
          "124409.593000",
          "124412.593000",
          "124415.093000",
          "124417.593000",
          "124420.093000",
          "124422.593000",
          "124425.593000",
          "124428.093000",
          "124430.593000",
          "124433.093000",
          "124435.593000",
          "124438.578000",
          "124441.093000",
          "124443.593000",
          "124446.093000",
          "124448.593000",
          "124451.593000",
          "124454.093000",
          "124456.593000",
          "124459.093000",
          "124501.593000",
          "124504.593000",
          "124507.093000",
          "124509.593000",
          "124512.093000",
          "124514.593000",
          "124517.593000",
          "124520.093000",
          "124522.593000",
          "124525.093000",
          "124527.593000",
          "124530.593000",
          "124533.093000",
          "124535.593000",
          "124538.093000",
          "124540.593000",
          "124543.593000",
          "124546.093000",
          "124548.593000",
          "124551.093000",
          "124553.593000",
          "124556.593000",
          "124559.093000",
          "124601.593000",
          "124604.093000",
          "124606.593000",
          "124609.593000",
          "124612.093000",
          "124614.593000",
          "124617.093000",
          "124619.593000",
          "124622.593000",
          "124625.093000",
          "124627.578000",
          "124630.093000",
          "124632.593000",
          "124635.593000",
          "124638.093000",
          "124640.593000",
          "124643.093000",
          "124645.593000",
          "124648.593000",
          "124651.093000",
          "124653.593000",
          "124656.093000",
          "124658.593000",
          "124701.593000",
          "124704.093000",
          "124706.593000",
          "124709.093000",
          "124711.593000",
          "124714.593000",
          "124717.093000",
          "124724.328000"
        ],
        "InstanceCreationTime": [
          "124056.593000",
          "124057.093000",
          "124057.593000",
          "124100.093000",
          "124102.593000",
          "124105.093000",
          "124107.593000",
          "124110.593000",
          "124113.093000",
          "124115.593000",
          "124118.093000",
          "124120.593000",
          "124123.593000",
          "124126.093000",
          "124128.593000",
          "124131.093000",
          "124133.593000",
          "124136.593000",
          "124139.093000",
          "124141.593000",
          "124144.093000",
          "124146.593000",
          "124149.593000",
          "124152.093000",
          "124154.593000",
          "124157.093000",
          "124159.593000",
          "124202.593000",
          "124205.093000",
          "124207.593000",
          "124210.093000",
          "124212.593000",
          "124215.578000",
          "124218.093000",
          "124220.578000",
          "124223.093000",
          "124225.593000",
          "124228.578000",
          "124231.093000",
          "124233.593000",
          "124236.093000",
          "124238.593000",
          "124241.593000",
          "124244.078000",
          "124246.593000",
          "124249.093000",
          "124251.593000",
          "124254.593000",
          "124257.093000",
          "124259.593000",
          "124302.093000",
          "124304.593000",
          "124307.593000",
          "124310.093000",
          "124312.593000",
          "124315.093000",
          "124317.593000",
          "124320.593000",
          "124323.093000",
          "124325.593000",
          "124328.093000",
          "124330.593000",
          "124333.593000",
          "124336.093000",
          "124338.593000",
          "124341.093000",
          "124343.593000",
          "124346.593000",
          "124349.093000",
          "124351.593000",
          "124354.093000",
          "124356.593000",
          "124359.593000",
          "124402.093000",
          "124404.593000",
          "124407.093000",
          "124409.593000",
          "124412.593000",
          "124415.093000",
          "124417.593000",
          "124420.093000",
          "124422.593000",
          "124425.593000",
          "124428.093000",
          "124430.593000",
          "124433.093000",
          "124435.593000",
          "124438.578000",
          "124441.093000",
          "124443.593000",
          "124446.093000",
          "124448.593000",
          "124451.593000",
          "124454.093000",
          "124456.593000",
          "124459.093000",
          "124501.593000",
          "124504.593000",
          "124507.093000",
          "124509.593000",
          "124512.093000",
          "124514.593000",
          "124517.593000",
          "124520.093000",
          "124522.593000",
          "124525.093000",
          "124527.593000",
          "124530.593000",
          "124533.093000",
          "124535.593000",
          "124538.093000",
          "124540.593000",
          "124543.593000",
          "124546.093000",
          "124548.593000",
          "124551.093000",
          "124553.593000",
          "124556.593000",
          "124559.093000",
          "124601.593000",
          "124604.093000",
          "124606.593000",
          "124609.593000",
          "124612.093000",
          "124614.593000",
          "124617.093000",
          "124619.593000",
          "124622.593000",
          "124625.093000",
          "124627.578000",
          "124630.093000",
          "124632.593000",
          "124635.593000",
          "124638.093000",
          "124640.593000",
          "124643.093000",
          "124645.593000",
          "124648.593000",
          "124651.093000",
          "124653.593000",
          "124656.093000",
          "124658.593000",
          "124701.593000",
          "124704.093000",
          "124706.593000",
          "124709.093000",
          "124711.593000",
          "124714.593000",
          "124717.093000",
          "124724.328000"
        ],
        "InstanceNumber": [
          1,
          2,
          3,
          4,
          5,
          6,
          7,
          8,
          9,
          10,
          11,
          12,
          13,
          14,
          15,
          16,
          17,
          18,
          19,
          20,
          21,
          22,
          23,
          24,
          25,
          26,
          27,
          28,
          29,
          30,
          31,
          32,
          33,
          34,
          35,
          36,
          37,
          38,
          39,
          40,
          41,
          42,
          43,
          44,
          45,
          46,
          47,
          48,
          49,
          50,
          51,
          52,
          53,
          54,
          55,
          56,
          57,
          58,
          59,
          60,
          61,
          62,
          63,
          64,
          65,
          66,
          67,
          68,
          69,
          70,
          71,
          72,
          73,
          74,
          75,
          76,
          77,
          78,
          79,
          80,
          81,
          82,
          83,
          84,
          85,
          86,
          87,
          88,
          89,
          90,
          91,
          92,
          93,
          94,
          95,
          96,
          97,
          98,
          99,
          100,
          101,
          102,
          103,
          104,
          105,
          106,
          107,
          108,
          109,
          110,
          111,
          112,
          113,
          114,
          115,
          116,
          117,
          118,
          119,
          120,
          121,
          122,
          123,
          124,
          125,
          126,
          127,
          128,
          129,
          130,
          131,
          132,
          133,
          134,
          135,
          136,
          137,
          138,
          139,
          140,
          141,
          142,
          143,
          144,
          145,
          146,
          147,
          148,
          149,
          150
        ],
        "WindowCenter": [
          894.0,
          888.0,
          886.0,
          888.0,
          890.0,
          892.0,
          892.0,
          893.0,
          894.0,
          889.0,
          887.0,
          885.0,
          886.0,
          888.0,
          886.0,
          887.0,
          890.0,
          888.0,
          887.0,
          888.0,
          893.0,
          889.0,
          887.0,
          888.0,
          888.0,
          891.0,
          892.0,
          891.0,
          890.0,
          889.0,
          890.0,
          891.0,
          890.0,
          891.0,
          891.0,
          892.0,
          892.0,
          892.0,
          893.0,
          894.0,
          893.0,
          891.0,
          893.0,
          892.0,
          892.0,
          892.0,
          893.0,
          892.0,
          891.0,
          890.0,
          894.0,
          893.0,
          890.0,
          891.0,
          892.0,
          892.0,
          891.0,
          892.0,
          893.0,
          895.0,
          896.0,
          894.0,
          895.0,
          893.0,
          893.0,
          891.0,
          893.0,
          894.0,
          891.0,
          892.0,
          890.0,
          893.0,
          894.0,
          892.0,
          892.0,
          892.0,
          893.0,
          892.0,
          890.0,
          891.0,
          892.0,
          892.0,
          892.0,
          892.0,
          895.0,
          894.0,
          895.0,
          895.0,
          893.0,
          893.0,
          894.0,
          893.0,
          892.0,
          893.0,
          894.0,
          895.0,
          894.0,
          894.0,
          894.0,
          895.0,
          895.0,
          894.0,
          895.0,
          893.0,
          893.0,
          893.0,
          891.0,
          892.0,
          895.0,
          891.0,
          890.0,
          891.0,
          891.0,
          893.0,
          893.0,
          894.0,
          892.0,
          893.0,
          892.0,
          890.0,
          890.0,
          889.0,
          889.0,
          890.0,
          892.0,
          891.0,
          892.0,
          894.0,
          891.0,
          889.0,
          890.0,
          889.0,
          891.0,
          891.0,
          890.0,
          892.0,
          892.0,
          892.0,
          890.0,
          891.0,
          892.0,
          891.0,
          888.0,
          890.0,
          892.0,
          892.0,
          892.0,
          890.0,
          891.0,
          890.0
        ],
        "WindowWidth": [
          2016.0,
          2000.0,
          1995.0,
          2002.0,
          2007.0,
          2012.0,
          2012.0,
          2016.0,
          2017.0,
          2003.0,
          1997.0,
          1992.0,
          1996.0,
          2000.0,
          1996.0,
          1998.0,
          2007.0,
          2002.0,
          2000.0,
          2000.0,
          2015.0,
          2003.0,
          2000.0,
          2000.0,
          2000.0,
          2011.0,
          2013.0,
          2009.0,
          2006.0,
          2004.0,
          2006.0,
          2009.0,
          2007.0,
          2010.0,
          2010.0,
          2013.0,
          2013.0,
          2011.0,
          2014.0,
          2018.0,
          2015.0,
          2009.0,
          2016.0,
          2012.0,
          2013.0,
          2012.0,
          2015.0,
          2012.0,
          2009.0,
          2008.0,
          2018.0,
          2016.0,
          2006.0,
          2010.0,
          2012.0,
          2013.0,
          2011.0,
          2012.0,
          2015.0,
          2023.0,
          2022.0,
          2017.0,
          2020.0,
          2016.0,
          2015.0,
          2011.0,
          2016.0,
          2017.0,
          2010.0,
          2012.0,
          2006.0,
          2016.0,
          2017.0,
          2012.0,
          2012.0,
          2014.0,
          2015.0,
          2011.0,
          2007.0,
          2010.0,
          2014.0,
          2012.0,
          2011.0,
          2013.0,
          2021.0,
          2019.0,
          2020.0,
          2022.0,
          2013.0,
          2015.0,
          2018.0,
          2015.0,
          2013.0,
          2015.0,
          2018.0,
          2019.0,
          2018.0,
          2017.0,
          2018.0,
          2021.0,
          2020.0,
          2019.0,
          2019.0,
          2014.0,
          2017.0,
          2016.0,
          2010.0,
          2014.0,
          2021.0,
          2010.0,
          2006.0,
          2012.0,
          2010.0,
          2015.0,
          2016.0,
          2018.0,
          2014.0,
          2017.0,
          2012.0,
          2008.0,
          2007.0,
          2005.0,
          2003.0,
          2007.0,
          2014.0,
          2010.0,
          2014.0,
          2020.0,
          2009.0,
          2005.0,
          2008.0,
          2006.0,
          2012.0,
          2009.0,
          2008.0,
          2013.0,
          2014.0,
          2012.0,
          2008.0,
          2010.0,
          2015.0,
          2011.0,
          2002.0,
          2008.0,
          2014.0,
          2015.0,
          2013.0,
          2008.0,
          2012.0,
          2006.0
        ]
      },
      "slices": {}
    }
  },
  "dummy_trs": 0,
  "dvars_nstd": 82.56039566973155,
  "dvars_std": 1.079130137516779,
  "dvars_vstd": 1.024936017986577,
  "efc": 0.5864306395855677,
  "fber": 188.52285766601562,
  "fd_mean": 0.11793687410924548,
  "fd_num": 11,
  "fd_perc": 7.333333333333333,
  "fwhm_avg": 3.2115666579258346,
  "fwhm_x": 3.077249573400039,
  "fwhm_y": 2.9811322960738913,
  "fwhm_z": 3.5763181043035743,
  "gcor": 0.00505641,
  "gsr_x": 0.025324301794171333,
  "gsr_y": 0.05570543557405472,
  "provenance": {
    "md5sum": "8ca1af405c214b9bf2617245b612b8c4",
    "settings": {
      "fd_thres": 0.2,
      "testing": false
    },
    "software": "mriqc",
    "version": "23.0.1",
    "webapi_port": null,
    "webapi_url": "https://mriqc.nimh.nih.gov/api/v1"
  },
  "size_t": 150,
  "size_x": 188,
  "size_y": 188,
  "size_z": 46,
  "snr": 1.7489840084897748,
  "spacing_tr": 2.5999999046325684,
  "spacing_x": 1.0957447290420532,
  "spacing_y": 1.0957447290420532,
  "spacing_z": 1.100000023841858,
  "summary_bg_k": 30.4443763093093,
  "summary_bg_mad": 41.30529871247465,
  "summary_bg_mean": 117.90776062011719,
  "summary_bg_median": 61.80000305175781,
  "summary_bg_n": 1021099.0,
  "summary_bg_p05": 28.666667938232422,
  "summary_bg_p95": 392.4613525390622,
