{
  "aor": 0.0006114666666666666,
  "aqi": 0.015045189333333334,
  "bids_meta": {
    "AcquisitionMatrixPE": 188,
    "AcquisitionNumber": 1,
    "AcquisitionTime": "17:44:7.025000",
    "BandwidthPerPixelPhaseEncode": 19.46,
    "BaseResolution": 188,
    "ConversionSoftware": "dcm2niix",
    "ConversionSoftwareVersion": "v1.0.20180606 GCC4.8.5",
    "DelayTime": 1.2,
    "DerivedVendorReportedEchoSpacing": 0.000820013,
    "DeviceSerialNumber": "18930",
    "DwellTime": 1.9e-06,
    "EchoTime": 0.02,
    "EffectiveEchoSpacing": 0.000273338,
    "FlipAngle": 80,
    "ImageComments": "Unaliased_MB2_PE2",
    "ImageOrientationPatientDICOM": [
      0.99917,
      0.0396396,
      -0.00933193,
      -0.0159716,
      0.170651,
      -0.985202
    ],
    "ImageType": [
      "ORIGINAL",
      "PRIMARY",
      "M",
      "MB",
      "ND",
      "MOSAIC"
    ],
    "InPlanePhaseEncodingDirectionDICOM": "COL",
    "InstitutionAddress": "Oxfordlaan_55_Maastricht_753AAF_Limburg_NL_6229_EV",
    "InstitutionName": "Scannexus",
    "InstitutionalDepartmentName": "MRI_7T",
    "MRAcquisitionType": "2D",
    "MagneticFieldStrength": 6.98,
    "Manufacturer": "Siemens",
    "ManufacturersModelName": "Investigational_Device_7T",
    "Modality": "MR",
    "MultibandAccelerationFactor": 2,
    "ParallelReductionFactorInPlane": 3,
    "PartialFourier": 0.75,
    "PatientPosition": "HFS",
    "PercentPhaseFOV": 100,
    "PhaseEncodingDirection": "j",
    "PhaseEncodingSteps": 141,
    "PhaseResolution": 1,
    "PixelBandwidth": 1400,
    "ProcedureStepDescription": "FeDem_Faruk",
    "ProtocolName": "cmrr_mbep2d_bold_AP_run4",
    "PulseSequenceDetails": "%CustomerSeq%_cmrr_mbep2d_bold",
    "ReceiveCoilName": "32Ch_Head_7T",
    "ReconMatrixPE": 188,
    "RepetitionTime": 2.6,
    "SAR": 0.0872722,
    "ScanOptions": "PFP_FS",
    "ScanningSequence": "EP",
    "SequenceName": "epfid2d1_188",
    "SequenceVariant": "SK_SS",
    "SeriesDescription": "cmrr_mbep2d_bold_AP_run4",
    "SeriesNumber": 15,
    "ShimSetting": [
      93,
      -33,
      463,
      631,
      -110,
      480,
      248,
      241
    ],
    "SliceThickness": 1.1,
    "SliceTiming": [
      0,
      0.735,
      0.0625,
      0.795,
      0.1225,
      0.8575,
      0.185,
      0.9175,
      0.245,
      0.9775,
      0.3075,
      1.04,
      0.3675,
      1.1,
      0.4275,
      1.1625,
      0.49,
      1.2225,
      0.55,
      1.285,
      0.6125,
      1.345,
      0.6725,
      0,
      0.735,
      0.0625,
      0.795,
      0.1225,
      0.8575,
      0.185,
      0.9175,
      0.245,
      0.9775,
      0.3075,
      1.04,
      0.3675,
      1.1,
      0.4275,
      1.1625,
      0.49,
      1.2225,
      0.55,
      1.285,
      0.6125,
      1.345,
      0.6725
    ],
    "SoftwareVersions": "syngo_MR_B17",
    "SpacingBetweenSlices": 1.1,
    "StationName": "MRC18930",
    "TaskName": "auditory",
    "TotalReadoutTime": 0.0511141,
    "TxRefAmp": 230,
    "dataset": "ds001942",
    "dcmmeta_affine": [
      [
        -1.0948357582092285,
        -0.017500832676887512,
        0.041206520050764084,
        103.71492004394531
      ],
      [
        -0.04343484342098236,
        0.18699046969413757,
        -1.0829871892929077,
        32.03782272338867
      ],
      [
        -0.01022541057318449,
        1.079529881477356,
        0.1882573366165161,
        -118.32125091552734
      ],
      [
        0.0,
        0.0,
        0.0,
        1.0
      ]
    ],
    "dcmmeta_reorient_transform": [
      [
        0.0,
        -1.0,
        0.0,
        187.0
      ],
      [
        1.0,
        0.0,
        0.0,
        0.0
      ],
      [
        0.0,
        0.0,
        1.0,
        0.0
      ],
      [
        0.0,
        0.0,
        0.0,
        1.0
      ]
    ],
    "dcmmeta_shape": [
      188,
      188,
      46,
      150
    ],
    "dcmmeta_slice_dim": 2,
    "dcmmeta_version": 0.6,
    "global": {
      "const": {
        "AcquisitionMatrix": [
          188,
          0,
          0,
          188
        ],
        "AngioFlag": "N",
        "BitsAllocated": 16,
        "BitsStored": 12,
        "Columns": 1316,
        "EchoNumbers": 1,
        "EchoTime": 20.0,
        "EchoTrainLength": 1,
        "FlipAngle": 80.0,
        "HighBit": 11,
        "ImageOrientationPatient": [
          0.99917046595386,
          0.03963956464482,
          -0.0093319280064,
          -0.0159716336989,
          0.17065148481829,
          -0.9852019983974
        ],
        "ImagePositionPatient": [
          -708.05917272675,
          -196.96491558702,
          698.17283448398
        ],
        "ImageType": [
          "ORIGINAL",
          "PRIMARY",
          "M",
          "MB",
          "ND",
          "MOSAIC"
        ],
        "ImagedNucleus": "1H",
        "ImagingFrequency": 297.205634,
        "InPlanePhaseEncodingDirection": "COL",
        "LargestImagePixelValue": 4095,
        "MRAcquisitionType": "2D",
        "MagneticFieldStrength": 6.98,
        "Manufacturer": "SIEMENS",
        "ManufacturerModelName": "Investigational_Device_7T",
        "Modality": "MR",
        "NumberOfAverages": 1.0,
        "NumberOfPhaseEncodingSteps": 141,
        "PercentPhaseFieldOfView": 100.0,
        "PercentSampling": 100.0,
        "PerformedProcedureStepStartTime": "165528.781000",
        "PhotometricInterpretation": "MONOCHROME2",
        "PixelBandwidth": 1400.0,
        "PixelRepresentation": 0,
        "PixelSpacing": [
          1.0957447290421,
          1.0957447290421
        ],
        "ProtocolName": "cmrr_mbep2d_bold_AP_run4",
        "RepetitionTime": 2600.0,
        "Rows": 1316,
        "SAR": 0.08727223309381,
        "SamplesPerPixel": 1,
        "ScanOptions": [
          "PFP",
          "FS"
        ],
        "ScanningSequence": "EP",
        "SequenceName": "epfid2d1_188",
        "SequenceVariant": [
          "SK",
          "SS"
        ],
        "SeriesDescription": "cmrr_mbep2d_bold_AP_run4",
        "SeriesNumber": 15,
        "SeriesTime": "174416.515000",
        "SliceLocation": -47.906968081104,
        "SliceThickness": 1.1000000238419,
        "SmallestImagePixelValue": 0,
        "SoftwareVersions": "syngo MR B17",
        "SpacingBetweenSlices": 1.100000010056,
        "SpecificCharacterSet": "ISO_IR 100",
        "StudyID": "1",
        "StudyTime": "165528.750000",
        "TransmitCoilName": "32Ch_Head_7T",
        "VariableFlipAngleFlag": "N",
        "WindowCenterWidthExplanation": "Algo1",
        "dBdt": 0.0
      },
      "slices": {}
    },
    "modality": "bold",
    "run_id": 4,
    "session_id": "SES03",
    "subject_id": "S09",
    "task_id": "auditory",
    "time": {
      "samples": {
        "AcquisitionNumber": [
          1,
          2,
          3,
          4,
          5,
          6,
          7,
          8,
          9,
          10,
          11,
          12,
          13,
          14,
          15,
          16,
          17,
          18,
          19,
          20,
          21,
          22,
          23,
          24,
          25,
          26,
          27,
          28,
          29,
          30,
          31,
          32,
          33,
          34,
          35,
          36,
          37,
          38,
          39,
          40,
          41,
          42,
          43,
          44,
          45,
          46,
          47,
          48,
          49,
          50,
          51,
          52,
          53,
          54,
          55,
          56,
          57,
          58,
          59,
          60,
          61,
          62,
          63,
          64,
          65,
          66,
          67,
          68,
          69,
          70,
          71,
          72,
          73,
          74,
          75,
          76,
          77,
          78,
          79,
          80,
          81,
          82,
          83,
          84,
          85,
          86,
          87,
          88,
          89,
          90,
          91,
          92,
          93,
          94,
          95,
          96,
          97,
          98,
          99,
          100,
          101,
          102,
          103,
          104,
          105,
          106,
          107,
          108,
          109,
          110,
          111,
          112,
          113,
          114,
          115,
          116,
          117,
          118,
          119,
          120,
          121,
          122,
          123,
          124,
          125,
          126,
          127,
          128,
          129,
          130,
          131,
          132,
          133,
          134,
          135,
          136,
          137,
          138,
          139,
          140,
          141,
          142,
          143,
          144,
          145,
          146,
          147,
          148,
          149,
          150
        ],
        "AcquisitionTime": [
          "174407.025000",
          "174409.637500",
          "174412.247500",
          "174414.857500",
          "174417.467500",
          "174420.077500",
          "174422.687500",
          "174425.300000",
          "174427.910000",
          "174430.520000",
          "174433.130000",
          "174435.740000",
          "174438.350000",
          "174440.962500",
          "174443.572500",
          "174446.182500",
          "174448.792500",
          "174451.402500",
          "174454.015000",
          "174456.625000",
          "174459.235000",
          "174501.845000",
          "174504.455000",
          "174507.065000",
          "174509.677500",
          "174512.287500",
          "174514.897500",
          "174517.507500",
          "174520.117500",
          "174522.727500",
          "174525.340000",
          "174527.950000",
          "174530.560000",
          "174533.170000",
          "174535.780000",
          "174538.392500",
          "174541.002500",
          "174543.612500",
          "174546.222500",
          "174548.832500",
          "174551.442500",
          "174554.055000",
          "174556.665000",
          "174559.275000",
          "174601.885000",
          "174604.495000",
          "174607.105000",
          "174609.717500",
          "174612.327500",
          "174614.937500",
          "174617.547500",
          "174620.157500",
          "174622.770000",
          "174625.380000",
          "174627.990000",
          "174630.600000",
          "174633.210000",
          "174635.820000",
          "174638.432500",
          "174641.042500",
          "174643.652500",
          "174646.262500",
          "174648.872500",
          "174651.482500",
          "174654.095000",
          "174656.705000",
          "174659.315000",
          "174701.925000",
          "174704.535000",
          "174707.147500",
          "174709.757500",
          "174712.367500",
          "174714.977500",
          "174717.587500",
          "174720.197500",
          "174722.810000",
          "174725.420000",
          "174728.030000",
          "174730.640000",
          "174733.250000",
          "174735.860000",
          "174738.472500",
          "174741.082500",
          "174743.692500",
          "174746.302500",
          "174748.912500",
          "174751.525000",
          "174754.135000",
          "174756.745000",
          "174759.355000",
          "174801.965000",
          "174804.575000",
          "174807.187500",
          "174809.797500",
          "174812.407500",
          "174815.017500",
          "174817.627500",
          "174820.237500",
          "174822.850000",
          "174825.460000",
          "174828.070000",
          "174830.680000",
          "174833.290000",
          "174835.902500",
          "174838.512500",
          "174841.122500",
          "174843.732500",
          "174846.342500",
          "174848.952500",
          "174851.565000",
          "174854.175000",
          "174856.785000",
          "174859.395000",
          "174902.005000",
          "174904.615000",
          "174907.227500",
          "174909.837500",
          "174912.447500",
          "174915.057500",
          "174917.667500",
          "174920.280000",
          "174922.890000",
          "174925.500000",
          "174928.110000",
          "174930.720000",
          "174933.330000",
          "174935.942500",
          "174938.552500",
          "174941.162500",
          "174943.772500",
          "174946.382500",
          "174948.992500",
          "174951.605000",
          "174954.215000",
          "174956.825000",
          "174959.435000",
          "175002.045000",
          "175004.657500",
          "175007.267500",
          "175009.877500",
          "175012.487500",
          "175015.097500",
          "175017.707500",
          "175020.320000",
          "175022.930000",
          "175025.540000",
          "175028.150000",
          "175030.760000",
          "175033.372500",
          "175035.982500"
        ],
        "ContentTime": [
          "174416.515000",
          "174417.515000",
          "174417.515000",
          "174420.015000",
          "174422.515000",
          "174425.015000",
          "174427.515000",
          "174430.015000",
          "174433.015000",
          "174435.515000",
          "174438.015000",
          "174440.515000",
          "174443.015000",
          "174446.015000",
          "174448.515000",
          "174451.015000",
          "174453.515000",
          "174456.015000",
          "174459.015000",
          "174501.515000",
          "174504.015000",
          "174506.515000",
          "174509.015000",
          "174512.015000",
          "174514.515000",
          "174517.015000",
          "174519.515000",
          "174522.015000",
          "174525.015000",
          "174527.515000",
          "174530.015000",
          "174532.515000",
          "174535.015000",
          "174538.015000",
          "174540.515000",
          "174543.015000",
          "174545.515000",
          "174548.015000",
          "174551.015000",
          "174553.515000",
          "174556.015000",
          "174558.515000",
          "174601.015000",
          "174604.015000",
          "174606.515000",
          "174609.015000",
          "174611.515000",
          "174614.015000",
          "174617.015000",
          "174619.515000",
          "174622.015000",
          "174624.515000",
          "174627.015000",
          "174630.015000",
          "174632.515000",
          "174635.015000",
          "174637.515000",
          "174640.015000",
          "174643.015000",
          "174645.515000",
          "174648.015000",
          "174650.515000",
          "174653.015000",
          "174656.015000",
          "174658.515000",
          "174701.015000",
          "174703.515000",
          "174706.015000",
          "174709.015000",
          "174711.515000",
          "174714.015000",
          "174716.515000",
          "174719.015000",
          "174722.015000",
          "174724.515000",
          "174727.015000",
          "174729.515000",
          "174732.015000",
          "174735.015000",
          "174737.515000",
          "174740.015000",
          "174742.515000",
          "174745.015000",
          "174748.015000",
          "174750.515000",
          "174753.015000",
          "174755.515000",
          "174758.015000",
          "174801.015000",
          "174803.515000",
          "174806.015000",
          "174808.515000",
          "174811.015000",
          "174814.015000",
          "174816.515000",
          "174819.015000",
          "174821.515000",
          "174824.015000",
          "174827.015000",
          "174829.515000",
          "174832.015000",
          "174834.515000",
          "174837.015000",
          "174840.015000",
          "174842.515000",
          "174845.015000",
          "174847.515000",
          "174850.015000",
          "174853.015000",
          "174855.515000",
          "174858.015000",
          "174900.515000",
          "174903.015000",
          "174906.015000",
          "174908.515000",
          "174911.015000",
          "174913.515000",
          "174916.015000",
          "174919.015000",
          "174921.515000",
          "174924.015000",
          "174926.515000",
          "174929.015000",
          "174932.015000",
          "174934.515000",
          "174937.015000",
          "174939.515000",
          "174942.015000",
          "174945.015000",
          "174947.515000",
          "174950.015000",
          "174952.515000",
          "174955.015000",
          "174958.015000",
          "175000.515000",
          "175003.015000",
          "175005.515000",
          "175008.015000",
          "175011.015000",
          "175013.515000",
          "175016.015000",
          "175018.515000",
          "175021.015000",
          "175024.015000",
          "175026.515000",
          "175029.015000",
          "175031.515000",
          "175034.015000",
          "175037.015000",
          "175044.125000"
        ],
        "InstanceCreationTime": [
          "174416.515000",
          "174417.515000",
          "174417.515000",
          "174420.015000",
          "174422.515000",
          "174425.015000",
          "174427.515000",
          "174430.015000",
          "174433.015000",
          "174435.515000",
          "174438.015000",
          "174440.515000",
          "174443.015000",
          "174446.015000",
          "174448.515000",
          "174451.015000",
          "174453.515000",
          "174456.015000",
          "174459.015000",
          "174501.515000",
          "174504.015000",
          "174506.515000",
          "174509.015000",
          "174512.015000",
          "174514.515000",
          "174517.015000",
          "174519.515000",
          "174522.015000",
          "174525.015000",
          "174527.515000",
          "174530.015000",
          "174532.515000",
          "174535.015000",
          "174538.015000",
          "174540.515000",
          "174543.015000",
          "174545.515000",
          "174548.015000",
          "174551.015000",
          "174553.515000",
          "174556.015000",
          "174558.515000",
          "174601.015000",
          "174604.015000",
          "174606.515000",
          "174609.015000",
          "174611.515000",
          "174614.015000",
          "174617.015000",
          "174619.515000",
          "174622.015000",
          "174624.515000",
          "174627.015000",
          "174630.015000",
          "174632.515000",
          "174635.015000",
          "174637.515000",
          "174640.015000",
          "174643.015000",
          "174645.515000",
          "174648.015000",
          "174650.515000",
          "174653.015000",
          "174656.015000",
          "174658.515000",
          "174701.015000",
          "174703.515000",
          "174706.015000",
          "174709.015000",
          "174711.515000",
          "174714.015000",
          "174716.515000",
          "174719.015000",
          "174722.015000",
          "174724.515000",
          "174727.015000",
          "174729.515000",
          "174732.015000",
          "174735.015000",
          "174737.515000",
          "174740.015000",
          "174742.515000",
          "174745.015000",
          "174748.015000",
          "174750.515000",
          "174753.015000",
          "174755.515000",
          "174758.015000",
          "174801.015000",
          "174803.515000",
          "174806.015000",
          "174808.515000",
          "174811.015000",
          "174814.015000",
          "174816.515000",
          "174819.015000",
          "174821.515000",
          "174824.015000",
          "174827.015000",
          "174829.515000",
          "174832.015000",
          "174834.515000",
          "174837.015000",
          "174840.015000",
          "174842.515000",
          "174845.015000",
          "174847.515000",
          "174850.015000",
          "174853.015000",
          "174855.515000",
          "174858.015000",
          "174900.515000",
          "174903.015000",
          "174906.015000",
          "174908.515000",
          "174911.015000",
          "174913.515000",
          "174916.015000",
          "174919.015000",
          "174921.515000",
          "174924.015000",
          "174926.515000",
          "174929.015000",
          "174932.015000",
          "174934.515000",
          "174937.015000",
          "174939.515000",
          "174942.015000",
          "174945.015000",
          "174947.515000",
          "174950.015000",
          "174952.515000",
          "174955.015000",
          "174958.015000",
          "175000.515000",
          "175003.015000",
          "175005.515000",
          "175008.015000",
          "175011.015000",
          "175013.515000",
          "175016.015000",
          "175018.515000",
          "175021.015000",
          "175024.015000",
          "175026.515000",
          "175029.015000",
          "175031.515000",
          "175034.015000",
          "175037.015000",
          "175044.125000"
        ],
        "InstanceNumber": [
          1,
          2,
          3,
          4,
          5,
          6,
          7,
          8,
          9,
          10,
          11,
          12,
          13,
          14,
          15,
          16,
          17,
          18,
          19,
          20,
          21,
          22,
          23,
          24,
          25,
          26,
          27,
          28,
          29,
          30,
          31,
          32,
          33,
          34,
          35,
          36,
          37,
          38,
          39,
          40,
          41,
          42,
          43,
          44,
          45,
          46,
          47,
          48,
          49,
          50,
          51,
          52,
          53,
          54,
          55,
          56,
          57,
          58,
          59,
          60,
          61,
          62,
          63,
          64,
          65,
          66,
          67,
          68,
          69,
          70,
          71,
          72,
          73,
          74,
          75,
          76,
          77,
          78,
          79,
          80,
          81,
          82,
          83,
          84,
          85,
          86,
          87,
          88,
          89,
          90,
          91,
          92,
          93,
          94,
          95,
          96,
          97,
          98,
          99,
          100,
          101,
          102,
          103,
          104,
          105,
          106,
          107,
          108,
          109,
          110,
          111,
          112,
          113,
          114,
          115,
          116,
          117,
          118,
          119,
          120,
          121,
          122,
          123,
          124,
          125,
          126,
          127,
          128,
          129,
          130,
          131,
          132,
          133,
          134,
          135,
          136,
          137,
          138,
          139,
          140,
          141,
          142,
          143,
          144,
          145,
          146,
          147,
          148,
          149,
          150
        ],
        "WindowCenter": [
          866.0,
          864.0,
          865.0,
          866.0,
          865.0,
          864.0,
          865.0,
          864.0,
          864.0,
          865.0,
          865.0,
          864.0,
          864.0,
          864.0,
          865.0,
          864.0,
          865.0,
          864.0,
          864.0,
          865.0,
          864.0,
          864.0,
          864.0,
          864.0,
          864.0,
          864.0,
          864.0,
          864.0,
          864.0,
          864.0,
          864.0,
          865.0,
          865.0,
          866.0,
          864.0,
          864.0,
          865.0,
          866.0,
          864.0,
          863.0,
          864.0,
          865.0,
          865.0,
          865.0,
          867.0,
          865.0,
          864.0,
          864.0,
          867.0,
          865.0,
          863.0,
          863.0,
          865.0,
          865.0,
          865.0,
          864.0,
          864.0,
          865.0,
          865.0,
          865.0,
          865.0,
          865.0,
          866.0,
          865.0,
          864.0,
          865.0,
          865.0,
          865.0,
          865.0,
          864.0,
          864.0,
          865.0,
          865.0,
          864.0,
          864.0,
          865.0,
          866.0,
          865.0,
          864.0,
          865.0,
          865.0,
          864.0,
          864.0,
          864.0,
          865.0,
          864.0,
          864.0,
          864.0,
          865.0,
          864.0,
          864.0,
          865.0,
          865.0,
          864.0,
          865.0,
          865.0,
          864.0,
          864.0,
          865.0,
          864.0,
          865.0,
          866.0,
          865.0,
          864.0,
          864.0,
          864.0,
          865.0,
          865.0,
          866.0,
          865.0,
          864.0,
          864.0,
          864.0,
          864.0,
          864.0,
          864.0,
          864.0,
          865.0,
          866.0,
          865.0,
          864.0,
          864.0,
          864.0,
          865.0,
          864.0,
          865.0,
          865.0,
          865.0,
          865.0,
          865.0,
          865.0,
          864.0,
          864.0,
          864.0,
          864.0,
          865.0,
          866.0,
          865.0,
          865.0,
          865.0,
          865.0,
          864.0,
          865.0,
          865.0,
          865.0,
          863.0,
          863.0,
          864.0,
          864.0,
          864.0
        ],
        "WindowWidth": [
          2002.0,
          1992.0,
          1997.0,
          2001.0,
          1999.0,
          1995.0,
          1997.0,
          1995.0,
          1993.0,
          1996.0,
          1996.0,
          1994.0,
          1996.0,
          1996.0,
          1996.0,
          1996.0,
          1999.0,
          1996.0,
          1996.0,
          1999.0,
          1995.0,
          1993.0,
          1996.0,
          1995.0,
          1994.0,
          1995.0,
          1994.0,
          1993.0,
          1996.0,
          1995.0,
          1996.0,
          1997.0,
          1998.0,
          1999.0,
          1994.0,
          1994.0,
          2000.0,
          2000.0,
          1993.0,
          1990.0,
          1994.0,
          1996.0,
          1996.0,
          2000.0,
          2004.0,
          1997.0,
          1995.0,
          1996.0,
          2005.0,
          1995.0,
          1989.0,
          1991.0,
          1999.0,
          1999.0,
          1998.0,
          1995.0,
          1994.0,
          1998.0,
          1999.0,
          1999.0,
          1998.0,
          1998.0,
          2001.0,
          1998.0,
          1995.0,
          1996.0,
          1997.0,
          1997.0,
          1996.0,
          1993.0,
          1996.0,
          1999.0,
          1996.0,
          1993.0,
          1995.0,
          1998.0,
          1999.0,
          1997.0,
          1996.0,
          1997.0,
          1997.0,
          1994.0,
          1993.0,
          1996.0,
          1998.0,
          1995.0,
          1995.0,
          1995.0,
          1997.0,
          1996.0,
          1996.0,
          1997.0,
          1998.0,
          1995.0,
          1997.0,
          1997.0,
          1995.0,
          1996.0,
          1996.0,
          1995.0,
          1997.0,
          2002.0,
          1997.0,
          1996.0,
          1993.0,
          1996.0,
          1997.0,
          1998.0,
          2000.0,
          1999.0,
          1995.0,
          1995.0,
          1995.0,
          1992.0,
          1992.0,
          1993.0,
          1996.0,
          2000.0,
          2001.0,
          1997.0,
          1995.0,
          1996.0,
          1996.0,
          1996.0,
          1997.0,
          2000.0,
          1998.0,
          1999.0,
          1998.0,
          1997.0,
          1997.0,
          1994.0,
          1994.0,
          1996.0,
          1996.0,
          1997.0,
          2001.0,
          1997.0,
          1997.0,
          1998.0,
          1997.0,
          1995.0,
          1996.0,
          1998.0,
          1997.0,
          1990.0,
          1992.0,
          1995.0,
          1995.0,
          1995.0
        ]
      },
      "slices": {}
    }
  },
  "dummy_trs": 0,
  "dvars_nstd": 72.71690793671142,
  "dvars_std": 1.0539017887919462,
  "dvars_vstd": 1.0012114303355701,
  "efc": 0.5517952527738132,
  "fber": 402.5107421875,
  "fd_mean": 0.044788223605935644,
  "fd_num": 0,
  "fd_perc": 0.0,
  "fwhm_avg": 2.7692013595951614,
  "fwhm_x": 2.6861183284661183,
  "fwhm_y": 2.6448130875642817,
  "fwhm_z": 2.976672662755085,
  "gcor": 0.00108197,
  "gsr_x": -0.02108396217226982,
  "gsr_y": 0.07433807104825974,
  "provenance": {
    "md5sum": "cbbda61a72c4b2fbbf1293cb551dd703",
    "settings": {
      "fd_thres": 0.2,
      "testing": false
    },
    "software": "mriqc",
    "version": "23.0.1",
    "webapi_port": null,
    "webapi_url": "https://mriqc.nimh.nih.gov/api/v1"
  },
  "size_t": 150,
  "size_x": 188,
  "size_y": 188,
  "size_z": 46,
  "snr": 2.1119189784738785,
  "spacing_tr": 2.5999999046325684,
  "spacing_x": 1.0957447290420532,
  "spacing_y": 1.0957447290420532,
  "spacing_z": 1.100000023841858,
  "summary_bg_k": 43.091351165229284,
  "summary_bg_mad": 22.782654279558706,
  "summary_bg_mean": 84.37024688720703,
  "summary_bg_median": 46.753334045410156,
  "summary_bg_n": 1073578.0,
  "summary_bg_p05": 29.760000228881836,
  "summary_bg_p95": 258.14666748046875,
