{
  "aor": 0.0006948000000000001,
  "aqi": 0.012137726,
  "bids_meta": {
    "AcquisitionMatrixPE": 188,
    "AcquisitionNumber": 1,
    "AcquisitionTime": "18:09:36.025000",
    "BandwidthPerPixelPhaseEncode": 19.46,
    "BaseResolution": 188,
    "ConversionSoftware": "dcm2niix",
    "ConversionSoftwareVersion": "v1.0.20180606 GCC4.8.5",
    "DelayTime": 1.2,
    "DerivedVendorReportedEchoSpacing": 0.000820013,
    "DeviceSerialNumber": "18930",
    "DwellTime": 1.9e-06,
    "EchoTime": 0.02,
    "EffectiveEchoSpacing": 0.000273338,
    "FlipAngle": 80,
    "ImageComments": "Unaliased_MB2_PE2",
    "ImageOrientationPatientDICOM": [
      0.99917,
      0.0396396,
      -0.00933193,
      -0.0159716,
      0.170651,
      -0.985202
    ],
    "ImageType": [
      "ORIGINAL",
      "PRIMARY",
      "M",
      "MB",
      "ND",
      "MOSAIC"
    ],
    "InPlanePhaseEncodingDirectionDICOM": "COL",
    "InstitutionAddress": "Oxfordlaan_55_Maastricht_753AAF_Limburg_NL_6229_EV",
    "InstitutionName": "Scannexus",
    "InstitutionalDepartmentName": "MRI_7T",
    "MRAcquisitionType": "2D",
    "MagneticFieldStrength": 6.98,
    "Manufacturer": "Siemens",
    "ManufacturersModelName": "Investigational_Device_7T",
    "Modality": "MR",
    "MultibandAccelerationFactor": 2,
    "ParallelReductionFactorInPlane": 3,
    "PartialFourier": 0.75,
    "PatientPosition": "HFS",
    "PercentPhaseFOV": 100,
    "PhaseEncodingDirection": "j",
    "PhaseEncodingSteps": 141,
    "PhaseResolution": 1,
    "PixelBandwidth": 1400,
    "ProcedureStepDescription": "FeDem_Faruk",
    "ProtocolName": "cmrr_mbep2d_bold_AP_run7",
    "PulseSequenceDetails": "%CustomerSeq%_cmrr_mbep2d_bold",
    "ReceiveCoilName": "32Ch_Head_7T",
    "ReconMatrixPE": 188,
    "RepetitionTime": 2.6,
    "SAR": 0.0873843,
    "ScanOptions": "PFP_FS",
    "ScanningSequence": "EP",
    "SequenceName": "epfid2d1_188",
    "SequenceVariant": "SK_SS",
    "SeriesDescription": "cmrr_mbep2d_bold_AP_run7",
    "SeriesNumber": 20,
    "ShimSetting": [
      93,
      -33,
      463,
      631,
      -110,
      480,
      248,
      241
    ],
    "SliceThickness": 1.1,
    "SliceTiming": [
      0,
      0.7325,
      0.0625,
      0.795,
      0.1225,
      0.855,
      0.185,
      0.9175,
      0.245,
      0.9775,
      0.305,
      1.04,
      0.3675,
      1.1,
      0.4275,
      1.1625,
      0.49,
      1.2225,
      0.55,
      1.2825,
      0.6125,
      1.345,
      0.6725,
      0,
      0.7325,
      0.0625,
      0.795,
      0.1225,
      0.855,
      0.185,
      0.9175,
      0.245,
      0.9775,
      0.305,
      1.04,
      0.3675,
      1.1,
      0.4275,
      1.1625,
      0.49,
      1.2225,
      0.55,
      1.2825,
      0.6125,
      1.345,
      0.6725
    ],
    "SoftwareVersions": "syngo_MR_B17",
    "SpacingBetweenSlices": 1.1,
    "StationName": "MRC18930",
    "TaskName": "auditory",
    "TotalReadoutTime": 0.0511141,
    "TxRefAmp": 230,
    "dataset": "ds001942",
    "dcmmeta_affine": [
      [
        -1.0948357582092285,
        -0.017500832676887512,
        0.041206520050764084,
        103.71492004394531
      ],
      [
        -0.04343484342098236,
        0.18699046969413757,
        -1.0829871892929077,
        32.03782272338867
      ],
      [
        -0.01022541057318449,
        1.079529881477356,
        0.1882573366165161,
        -118.32125091552734
      ],
      [
        0.0,
        0.0,
        0.0,
        1.0
      ]
    ],
    "dcmmeta_reorient_transform": [
      [
        0.0,
        -1.0,
        0.0,
        187.0
      ],
      [
        1.0,
        0.0,
        0.0,
        0.0
      ],
      [
        0.0,
        0.0,
        1.0,
        0.0
      ],
      [
        0.0,
        0.0,
        0.0,
        1.0
      ]
    ],
    "dcmmeta_shape": [
      188,
      188,
      46,
      150
    ],
    "dcmmeta_slice_dim": 2,
    "dcmmeta_version": 0.6,
    "global": {
      "const": {
        "AcquisitionMatrix": [
          188,
          0,
          0,
          188
        ],
        "AngioFlag": "N",
        "BitsAllocated": 16,
        "BitsStored": 12,
        "Columns": 1316,
        "EchoNumbers": 1,
        "EchoTime": 20.0,
        "EchoTrainLength": 1,
        "FlipAngle": 80.0,
        "HighBit": 11,
        "ImageOrientationPatient": [
          0.99917046595386,
          0.03963956464482,
          -0.0093319280064,
          -0.0159716336989,
          0.17065148481829,
          -0.9852019983974
        ],
        "ImagePositionPatient": [
          -708.05917272675,
          -196.96491558702,
          698.17283448398
        ],
        "ImageType": [
          "ORIGINAL",
          "PRIMARY",
          "M",
          "MB",
          "ND",
          "MOSAIC"
        ],
        "ImagedNucleus": "1H",
        "ImagingFrequency": 297.205643,
        "InPlanePhaseEncodingDirection": "COL",
        "LargestImagePixelValue": 4095,
        "MRAcquisitionType": "2D",
        "MagneticFieldStrength": 6.98,
        "Manufacturer": "SIEMENS",
        "ManufacturerModelName": "Investigational_Device_7T",
        "Modality": "MR",
        "NumberOfAverages": 1.0,
        "NumberOfPhaseEncodingSteps": 141,
        "PercentPhaseFieldOfView": 100.0,
        "PercentSampling": 100.0,
        "PerformedProcedureStepStartTime": "165528.781000",
        "PhotometricInterpretation": "MONOCHROME2",
        "PixelBandwidth": 1400.0,
        "PixelRepresentation": 0,
        "PixelSpacing": [
          1.0957447290421,
          1.0957447290421
        ],
        "ProtocolName": "cmrr_mbep2d_bold_AP_run7",
        "RepetitionTime": 2600.0,
        "Rows": 1316,
        "SAR": 0.08738427977997,
        "SamplesPerPixel": 1,
        "ScanOptions": [
          "PFP",
          "FS"
        ],
        "ScanningSequence": "EP",
        "SequenceName": "epfid2d1_188",
        "SequenceVariant": [
          "SK",
          "SS"
        ],
        "SeriesDescription": "cmrr_mbep2d_bold_AP_run7",
        "SeriesNumber": 20,
        "SeriesTime": "180945.718000",
        "SliceLocation": -47.906968081104,
        "SliceThickness": 1.1000000238419,
        "SmallestImagePixelValue": 0,
        "SoftwareVersions": "syngo MR B17",
        "SpacingBetweenSlices": 1.100000010056,
        "SpecificCharacterSet": "ISO_IR 100",
        "StudyID": "1",
        "StudyTime": "165528.750000",
        "TransmitCoilName": "32Ch_Head_7T",
        "VariableFlipAngleFlag": "N",
        "WindowCenterWidthExplanation": "Algo1",
        "dBdt": 0.0
      },
      "slices": {}
    },
    "modality": "bold",
    "run_id": 7,
    "session_id": "SES03",
    "subject_id": "S09",
    "task_id": "auditory",
    "time": {
      "samples": {
        "AcquisitionNumber": [
          1,
          2,
          3,
          4,
          5,
          6,
          7,
          8,
          9,
          10,
          11,
          12,
          13,
          14,
          15,
          16,
          17,
          18,
          19,
          20,
          21,
          22,
          23,
          24,
          25,
          26,
          27,
          28,
          29,
          30,
          31,
          32,
          33,
          34,
          35,
          36,
          37,
          38,
          39,
          40,
          41,
          42,
          43,
          44,
          45,
          46,
          47,
          48,
          49,
          50,
          51,
          52,
          53,
          54,
          55,
          56,
          57,
          58,
          59,
          60,
          61,
          62,
          63,
          64,
          65,
          66,
          67,
          68,
          69,
          70,
          71,
          72,
          73,
          74,
          75,
          76,
          77,
          78,
          79,
          80,
          81,
          82,
          83,
          84,
          85,
          86,
          87,
          88,
          89,
          90,
          91,
          92,
          93,
          94,
          95,
          96,
          97,
          98,
          99,
          100,
          101,
          102,
          103,
          104,
          105,
          106,
          107,
          108,
          109,
          110,
          111,
          112,
          113,
          114,
          115,
          116,
          117,
          118,
          119,
          120,
          121,
          122,
          123,
          124,
          125,
          126,
          127,
          128,
          129,
          130,
          131,
          132,
          133,
          134,
          135,
          136,
          137,
          138,
          139,
          140,
          141,
          142,
          143,
          144,
          145,
          146,
          147,
          148,
          149,
          150
        ],
        "AcquisitionTime": [
          "180936.025000",
          "180938.635000",
          "180941.247500",
          "180943.857500",
          "180946.467500",
          "180949.077500",
          "180951.687500",
          "180954.297500",
          "180956.910000",
          "180959.520000",
          "181002.130000",
          "181004.740000",
          "181007.350000",
          "181009.960000",
          "181012.572500",
          "181015.182500",
          "181017.792500",
          "181020.402500",
          "181023.012500",
          "181025.625000",
          "181028.235000",
          "181030.845000",
          "181033.455000",
          "181036.065000",
          "181038.675000",
          "181041.287500",
          "181043.897500",
          "181046.507500",
          "181049.117500",
          "181051.727500",
          "181054.337500",
          "181056.950000",
          "181059.560000",
          "181102.170000",
          "181104.780000",
          "181107.390000",
          "181110.002500",
          "181112.612500",
          "181115.222500",
          "181117.832500",
          "181120.442500",
          "181123.052500",
          "181125.665000",
          "181128.275000",
          "181130.885000",
          "181133.495000",
          "181136.105000",
          "181138.715000",
          "181141.327500",
          "181143.937500",
          "181146.547500",
          "181149.157500",
          "181151.767500",
          "181154.380000",
          "181156.990000",
          "181159.600000",
          "181202.210000",
          "181204.820000",
          "181207.430000",
          "181210.042500",
          "181212.652500",
          "181215.262500",
          "181217.872500",
          "181220.482500",
          "181223.095000",
          "181225.705000",
          "181228.315000",
          "181230.925000",
          "181233.535000",
          "181236.145000",
          "181238.757500",
          "181241.367500",
          "181243.977500",
          "181246.587500",
          "181249.197500",
          "181251.807500",
          "181254.420000",
          "181257.030000",
          "181259.640000",
          "181302.250000",
          "181304.860000",
          "181307.472500",
          "181310.082500",
          "181312.692500",
          "181315.302500",
          "181317.912500",
          "181320.522500",
          "181323.135000",
          "181325.745000",
          "181328.355000",
          "181330.965000",
          "181333.575000",
          "181336.185000",
          "181338.797500",
          "181341.407500",
          "181344.017500",
          "181346.627500",
          "181349.237500",
          "181351.850000",
          "181354.460000",
          "181357.070000",
          "181359.680000",
          "181402.290000",
          "181404.900000",
          "181407.512500",
          "181410.122500",
          "181412.732500",
          "181415.342500",
          "181417.952500",
          "181420.562500",
          "181423.175000",
          "181425.785000",
          "181428.395000",
          "181431.005000",
          "181433.615000",
          "181436.227500",
          "181438.837500",
          "181441.447500",
          "181444.057500",
          "181446.667500",
          "181449.277500",
          "181451.890000",
          "181454.500000",
          "181457.110000",
          "181459.720000",
          "181502.330000",
          "181504.940000",
          "181507.552500",
          "181510.162500",
          "181512.772500",
          "181515.382500",
          "181517.992500",
          "181520.605000",
          "181523.215000",
          "181525.825000",
          "181528.435000",
          "181531.045000",
          "181533.655000",
          "181536.267500",
          "181538.877500",
          "181541.487500",
          "181544.097500",
          "181546.707500",
          "181549.317500",
          "181551.930000",
          "181554.540000",
          "181557.150000",
          "181559.760000",
          "181602.370000",
          "181604.982500"
        ],
        "ContentTime": [
          "180945.734000",
          "180946.218000",
          "180946.718000",
          "180949.218000",
          "180951.718000",
          "180954.218000",
          "180956.718000",
          "180959.718000",
          "181002.218000",
          "181004.718000",
          "181007.218000",
          "181009.718000",
          "181012.718000",
          "181015.218000",
          "181017.718000",
          "181020.218000",
          "181022.718000",
          "181025.718000",
          "181028.218000",
          "181030.718000",
          "181033.218000",
          "181035.718000",
          "181038.718000",
          "181041.218000",
          "181043.718000",
          "181046.218000",
          "181048.718000",
          "181051.718000",
          "181054.218000",
          "181056.718000",
          "181059.218000",
          "181101.718000",
          "181104.718000",
          "181107.218000",
          "181109.718000",
          "181112.218000",
          "181114.718000",
          "181117.718000",
          "181120.218000",
          "181122.718000",
          "181125.218000",
          "181127.718000",
          "181130.718000",
          "181133.218000",
          "181135.718000",
          "181138.218000",
          "181140.718000",
          "181143.718000",
          "181146.218000",
          "181148.718000",
          "181151.218000",
          "181153.718000",
          "181156.718000",
          "181159.218000",
          "181201.718000",
          "181204.218000",
          "181206.718000",
          "181209.718000",
          "181212.218000",
          "181214.718000",
          "181217.218000",
          "181219.718000",
          "181222.718000",
          "181225.218000",
          "181227.718000",
          "181230.218000",
          "181232.718000",
          "181235.734000",
          "181238.218000",
          "181240.718000",
          "181243.218000",
          "181245.718000",
          "181248.718000",
          "181251.218000",
          "181253.718000",
          "181256.218000",
          "181258.718000",
          "181301.718000",
          "181304.218000",
          "181306.718000",
          "181309.218000",
          "181311.718000",
          "181314.718000",
          "181317.218000",
          "181319.718000",
          "181322.218000",
          "181324.718000",
          "181327.718000",
          "181330.218000",
          "181332.718000",
          "181335.218000",
          "181337.718000",
          "181340.718000",
          "181343.218000",
          "181345.718000",
          "181348.218000",
          "181350.718000",
          "181353.718000",
          "181356.218000",
          "181358.718000",
          "181401.218000",
          "181403.718000",
          "181406.718000",
          "181409.218000",
          "181411.718000",
          "181414.218000",
          "181416.718000",
          "181419.718000",
          "181422.218000",
          "181424.718000",
          "181427.218000",
          "181429.718000",
          "181432.718000",
          "181435.218000",
          "181437.718000",
          "181440.218000",
          "181442.718000",
          "181445.718000",
          "181448.218000",
          "181450.718000",
          "181453.218000",
          "181455.718000",
          "181458.718000",
          "181501.218000",
          "181503.718000",
          "181506.218000",
          "181508.718000",
          "181511.718000",
          "181514.218000",
          "181516.718000",
          "181519.218000",
          "181521.718000",
          "181524.718000",
          "181527.218000",
          "181529.718000",
          "181532.218000",
          "181534.718000",
          "181537.718000",
          "181540.218000",
          "181542.718000",
          "181545.218000",
          "181547.718000",
          "181550.718000",
          "181553.218000",
          "181555.718000",
          "181558.218000",
          "181600.718000",
          "181603.718000",
          "181606.218000",
          "181613.421000"
        ],
        "InstanceCreationTime": [
          "180945.734000",
          "180946.218000",
          "180946.718000",
          "180949.218000",
          "180951.718000",
          "180954.218000",
          "180956.718000",
          "180959.718000",
          "181002.218000",
          "181004.718000",
          "181007.218000",
          "181009.718000",
          "181012.718000",
          "181015.218000",
          "181017.718000",
          "181020.218000",
          "181022.718000",
          "181025.718000",
          "181028.218000",
          "181030.718000",
          "181033.218000",
          "181035.718000",
          "181038.718000",
          "181041.218000",
          "181043.718000",
          "181046.218000",
          "181048.718000",
          "181051.718000",
          "181054.218000",
          "181056.718000",
          "181059.218000",
          "181101.718000",
          "181104.718000",
          "181107.218000",
          "181109.718000",
          "181112.218000",
          "181114.718000",
          "181117.718000",
          "181120.218000",
          "181122.718000",
          "181125.218000",
          "181127.718000",
          "181130.718000",
          "181133.218000",
          "181135.718000",
          "181138.218000",
          "181140.718000",
          "181143.718000",
          "181146.218000",
          "181148.718000",
          "181151.218000",
          "181153.718000",
          "181156.718000",
          "181159.218000",
          "181201.718000",
          "181204.218000",
          "181206.718000",
          "181209.718000",
          "181212.218000",
          "181214.718000",
          "181217.218000",
          "181219.718000",
          "181222.718000",
          "181225.218000",
          "181227.718000",
          "181230.218000",
          "181232.718000",
          "181235.734000",
          "181238.218000",
          "181240.718000",
          "181243.218000",
          "181245.718000",
          "181248.718000",
          "181251.218000",
          "181253.718000",
          "181256.218000",
          "181258.718000",
          "181301.718000",
          "181304.218000",
          "181306.718000",
          "181309.218000",
          "181311.718000",
          "181314.718000",
          "181317.218000",
          "181319.718000",
          "181322.218000",
          "181324.718000",
          "181327.718000",
          "181330.218000",
          "181332.718000",
          "181335.218000",
          "181337.718000",
          "181340.718000",
          "181343.218000",
          "181345.718000",
          "181348.218000",
          "181350.718000",
          "181353.718000",
          "181356.218000",
          "181358.718000",
          "181401.218000",
          "181403.718000",
          "181406.718000",
          "181409.218000",
          "181411.718000",
          "181414.218000",
          "181416.718000",
          "181419.718000",
          "181422.218000",
          "181424.718000",
          "181427.218000",
          "181429.718000",
          "181432.718000",
          "181435.218000",
          "181437.718000",
          "181440.218000",
          "181442.718000",
          "181445.718000",
          "181448.218000",
          "181450.718000",
          "181453.218000",
          "181455.718000",
          "181458.718000",
          "181501.218000",
          "181503.718000",
          "181506.218000",
          "181508.718000",
          "181511.718000",
          "181514.218000",
          "181516.718000",
          "181519.218000",
          "181521.718000",
          "181524.718000",
          "181527.218000",
          "181529.718000",
          "181532.218000",
          "181534.718000",
          "181537.718000",
          "181540.218000",
          "181542.718000",
          "181545.218000",
          "181547.718000",
          "181550.718000",
          "181553.218000",
          "181555.718000",
          "181558.218000",
          "181600.718000",
          "181603.718000",
          "181606.218000",
          "181613.421000"
        ],
        "InstanceNumber": [
          1,
          2,
          3,
          4,
          5,
          6,
          7,
          8,
          9,
          10,
          11,
          12,
          13,
          14,
          15,
          16,
          17,
          18,
          19,
          20,
          21,
          22,
          23,
          24,
          25,
          26,
          27,
          28,
          29,
          30,
          31,
          32,
          33,
          34,
          35,
          36,
          37,
          38,
          39,
          40,
          41,
          42,
          43,
          44,
          45,
          46,
          47,
          48,
          49,
          50,
          51,
          52,
          53,
          54,
          55,
          56,
          57,
          58,
          59,
          60,
          61,
          62,
          63,
          64,
          65,
          66,
          67,
          68,
          69,
          70,
          71,
          72,
          73,
          74,
          75,
          76,
          77,
          78,
          79,
          80,
          81,
          82,
          83,
          84,
          85,
          86,
          87,
          88,
          89,
          90,
          91,
          92,
          93,
          94,
          95,
          96,
          97,
          98,
          99,
          100,
          101,
          102,
          103,
          104,
          105,
          106,
          107,
          108,
          109,
          110,
          111,
          112,
          113,
          114,
          115,
          116,
          117,
          118,
          119,
          120,
          121,
          122,
          123,
          124,
          125,
          126,
          127,
          128,
          129,
          130,
          131,
          132,
          133,
          134,
          135,
          136,
          137,
          138,
          139,
          140,
          141,
          142,
          143,
          144,
          145,
          146,
          147,
          148,
          149,
          150
        ],
        "WindowCenter": [
          866.0,
          865.0,
          864.0,
          864.0,
          865.0,
          865.0,
          864.0,
          864.0,
          865.0,
          864.0,
          864.0,
          865.0,
          865.0,
          865.0,
          863.0,
          863.0,
          864.0,
          865.0,
          864.0,
          864.0,
          864.0,
          863.0,
          864.0,
          865.0,
          865.0,
          865.0,
          865.0,
          864.0,
          864.0,
          864.0,
          864.0,
          864.0,
          864.0,
          864.0,
          864.0,
          865.0,
          864.0,
          863.0,
          864.0,
          865.0,
          865.0,
          865.0,
          866.0,
          865.0,
          864.0,
          865.0,
          864.0,
          864.0,
          864.0,
          863.0,
          863.0,
          864.0,
          864.0,
          864.0,
          865.0,
          865.0,
          864.0,
          864.0,
          864.0,
          863.0,
          864.0,
          864.0,
          865.0,
          865.0,
          865.0,
          864.0,
          864.0,
          867.0,
          865.0,
          863.0,
          863.0,
          864.0,
          864.0,
          864.0,
          864.0,
          866.0,
          865.0,
          864.0,
          864.0,
          865.0,
          864.0,
          864.0,
          865.0,
          865.0,
          864.0,
          865.0,
          865.0,
          865.0,
          865.0,
          865.0,
          865.0,
          866.0,
          865.0,
          865.0,
          865.0,
          865.0,
          866.0,
          866.0,
          865.0,
          864.0,
          866.0,
          866.0,
          865.0,
          864.0,
          866.0,
          866.0,
          866.0,
          865.0,
          866.0,
          867.0,
          865.0,
          863.0,
          864.0,
          865.0,
          865.0,
          865.0,
          865.0,
          865.0,
          866.0,
          865.0,
          865.0,
          866.0,
          866.0,
          864.0,
          864.0,
          864.0,
          864.0,
          864.0,
          865.0,
          867.0,
          865.0,
          863.0,
          863.0,
          865.0,
          865.0,
          864.0,
          864.0,
          865.0,
          866.0,
          866.0,
          865.0,
          865.0,
          866.0,
          864.0,
          864.0,
          865.0,
          866.0,
          865.0,
          865.0,
          865.0
        ],
        "WindowWidth": [
          1998.0,
          1996.0,
          1991.0,
          1991.0,
          1995.0,
          1993.0,
          1991.0,
          1991.0,
          1996.0,
          1993.0,
          1990.0,
          1996.0,
          1997.0,
          1994.0,
          1989.0,
          1988.0,
          1993.0,
          1995.0,
          1992.0,
          1990.0,
          1991.0,
          1990.0,
          1994.0,
          1995.0,
          1995.0,
          1997.0,
          1997.0,
          1991.0,
          1991.0,
          1992.0,
          1990.0,
          1992.0,
          1992.0,
          1990.0,
          1994.0,
          1995.0,
          1991.0,
          1988.0,
          1993.0,
          1996.0,
          1994.0,
          1997.0,
          2000.0,
          1995.0,
          1993.0,
          1994.0,
          1993.0,
          1991.0,
          1990.0,
          1989.0,
          1990.0,
          1992.0,
          1993.0,
          1994.0,
          1996.0,
          1996.0,
          1993.0,
          1992.0,
          1992.0,
          1989.0,
          1991.0,
          1992.0,
          1996.0,
          1997.0,
          1996.0,
          1994.0,
          1993.0,
          2002.0,
          1993.0,
          1988.0,
          1990.0,
          1993.0,
          1991.0,
          1991.0,
          1991.0,
          1998.0,
          1997.0,
          1991.0,
          1991.0,
          1994.0,
          1991.0,
          1990.0,
          1996.0,
          1995.0,
          1992.0,
          1995.0,
          1995.0,
          1996.0,
          1997.0,
          1995.0,
          1996.0,
          1999.0,
          1996.0,
          1997.0,
          1995.0,
          1993.0,
          1997.0,
          2000.0,
          1995.0,
          1993.0,
          1998.0,
          1999.0,
          1993.0,
          1993.0,
          2000.0,
          1999.0,
          1997.0,
          1996.0,
          1997.0,
          2002.0,
          1994.0,
          1988.0,
          1990.0,
          1994.0,
          1995.0,
          1995.0,
          1996.0,
          1996.0,
          1999.0,
          1996.0,
          1997.0,
          2001.0,
          1997.0,
          1991.0,
          1992.0,
          1992.0,
          1993.0,
          1993.0,
          1996.0,
          2001.0,
          1994.0,
          1988.0,
          1989.0,
          1996.0,
          1994.0,
          1991.0,
          1993.0,
          1995.0,
          1997.0,
          1997.0,
          1995.0,
          1996.0,
          1998.0,
          1992.0,
          1993.0,
          1998.0,
          1998.0,
          1994.0,
          1994.0,
          1996.0
        ]
      },
      "slices": {}
    }
  },
  "dummy_trs": 0,
  "dvars_nstd": 74.11286414241609,
  "dvars_std": 1.0828116938926176,
  "dvars_vstd": 1.0184146672483223,
  "efc": 0.5528700007891716,
  "fber": 402.6871643066406,
  "fd_mean": 0.03931958068445385,
  "fd_num": 0,
  "fd_perc": 0.0,
  "fwhm_avg": 2.7419080390548203,
  "fwhm_x": 2.65528998030739,
  "fwhm_y": 2.6173705644993626,
  "fwhm_z": 2.9530635723577072,
  "gcor": 0.00193429,
  "gsr_x": -0.02117423713207245,
  "gsr_y": 0.07514805346727371,
  "provenance": {
    "md5sum": "9fb959d115000d88a7853c3f674e169c",
    "settings": {
      "fd_thres": 0.2,
      "testing": false
    },
    "software": "mriqc",
    "version": "23.0.1",
    "webapi_port": null,
    "webapi_url": "https://mriqc.nimh.nih.gov/api/v1"
  },
  "size_t": 150,
  "size_x": 188,
  "size_y": 188,
  "size_z": 46,
  "snr": 2.1196328922868695,
  "spacing_tr": 2.5999999046325684,
  "spacing_x": 1.0957447290420532,
  "spacing_y": 1.0957447290420532,
  "spacing_z": 1.100000023841858,
  "summary_bg_k": 43.97727973868169,
  "summary_bg_mad": 22.3082220220912,
  "summary_bg_mean": 85.2316665649414,
  "summary_bg_median": 46.64666748046875,
  "summary_bg_n": 1073171.0,
  "summary_bg_p05": 30.106666564941406,
  "summary_bg_p95": 261.8233337402344,
