{
  "aor": 0.0005806,
  "aqi": 0.013190054000000001,
  "bids_meta": {
    "AcquisitionMatrixPE": 188,
    "AcquisitionNumber": 1,
    "AcquisitionTime": "13:19:5.395000",
    "BandwidthPerPixelPhaseEncode": 19.46,
    "BaseResolution": 188,
    "ConversionSoftware": "dcm2niix",
    "ConversionSoftwareVersion": "v1.0.20180606 GCC4.8.5",
    "DelayTime": 1.2,
    "DerivedVendorReportedEchoSpacing": 0.000820013,
    "DeviceSerialNumber": "18930",
    "DwellTime": 1.9e-06,
    "EchoTime": 0.02,
    "EffectiveEchoSpacing": 0.000273338,
    "FlipAngle": 80,
    "ImageComments": "Unaliased_MB2_PE2",
    "ImageOrientationPatientDICOM": [
      0.998247,
      0.034978,
      -0.0477451,
      -0.0521758,
      0.139228,
      -0.988885
    ],
    "ImageType": [
      "ORIGINAL",
      "PRIMARY",
      "M",
      "MB",
      "ND",
      "MOSAIC"
    ],
    "InPlanePhaseEncodingDirectionDICOM": "COL",
    "InstitutionAddress": "Oxfordlaan_55_Maastricht_753AAF_Limburg_NL_6229_EV",
    "InstitutionName": "Scannexus",
    "InstitutionalDepartmentName": "MRI_7T",
    "MRAcquisitionType": "2D",
    "MagneticFieldStrength": 6.98,
    "Manufacturer": "Siemens",
    "ManufacturersModelName": "Investigational_Device_7T",
    "Modality": "MR",
    "MultibandAccelerationFactor": 2,
    "ParallelReductionFactorInPlane": 3,
    "PartialFourier": 0.75,
    "PatientPosition": "HFS",
    "PercentPhaseFOV": 100,
    "PhaseEncodingDirection": "j",
    "PhaseEncodingSteps": 141,
    "PhaseResolution": 1,
    "PixelBandwidth": 1400,
    "ProcedureStepDescription": "FeDem_Faruk",
    "ProtocolName": "cmrr_mbep2d_bold_AP_run8",
    "PulseSequenceDetails": "%CustomerSeq%_cmrr_mbep2d_bold",
    "ReceiveCoilName": "32Ch_Head_7T",
    "ReconMatrixPE": 188,
    "RepetitionTime": 2.6,
    "SAR": 0.0944351,
    "ScanOptions": "PFP_FS",
    "ScanningSequence": "EP",
    "SequenceName": "epfid2d1_188",
    "SequenceVariant": "SK_SS",
    "SeriesDescription": "cmrr_mbep2d_bold_AP_run8",
    "SeriesNumber": 21,
    "ShimSetting": [
      49,
      -92,
      482,
      429,
      -59,
      -52,
      -137,
      172
    ],
    "SliceThickness": 1.1,
    "SliceTiming": [
      0,
      0.7325,
      0.06,
      0.795,
      0.1225,
      0.855,
      0.1825,
      0.9175,
      0.245,
      0.9775,
      0.305,
      1.0375,
      0.3675,
      1.1,
      0.4275,
      1.16,
      0.4875,
      1.2225,
      0.55,
      1.2825,
      0.61,
      1.345,
      0.6725,
      0,
      0.7325,
      0.06,
      0.795,
      0.1225,
      0.855,
      0.1825,
      0.9175,
      0.245,
      0.9775,
      0.305,
      1.0375,
      0.3675,
      1.1,
      0.4275,
      1.16,
      0.4875,
      1.2225,
      0.55,
      1.2825,
      0.61,
      1.345,
      0.6725
    ],
    "SoftwareVersions": "syngo_MR_B17",
    "SpacingBetweenSlices": 1.1,
    "StationName": "MRC18930",
    "TaskName": "auditory",
    "TotalReadoutTime": 0.0511141,
    "TxRefAmp": 235,
    "dataset": "ds001942",
    "dcmmeta_affine": [
      [
        -1.093823790550232,
        -0.05717133730649948,
        0.03073599748313427,
        103.88965606689453
      ],
      [
        -0.03832700103521347,
        0.1525578647851944,
        -1.0886064767837524,
        34.36977005004883
      ],
      [
        -0.052316438406705856,
        1.0835654735565186,
        0.1548893004655838,
        -112.62718963623047
      ],
      [
        0.0,
        0.0,
        0.0,
        1.0
      ]
    ],
    "dcmmeta_reorient_transform": [
      [
        0.0,
        -1.0,
        0.0,
        187.0
      ],
      [
        1.0,
        0.0,
        0.0,
        0.0
      ],
      [
        0.0,
        0.0,
        1.0,
        0.0
      ],
      [
        0.0,
        0.0,
        0.0,
        1.0
      ]
    ],
    "dcmmeta_shape": [
      188,
      188,
      46,
      150
    ],
    "dcmmeta_slice_dim": 2,
    "dcmmeta_version": 0.6,
    "global": {
      "const": {
        "AcquisitionMatrix": [
          188,
          0,
          0,
          188
        ],
        "AngioFlag": "N",
        "BitsAllocated": 16,
        "BitsStored": 12,
        "Columns": 1316,
        "EchoNumbers": 1,
        "EchoTime": 20.0,
        "EchoTrainLength": 1,
        "FlipAngle": 80.0,
        "HighBit": 11,
        "ImageOrientationPatient": [
          0.99824693467065,
          0.03497803943101,
          -0.0477450958552,
          -0.0521757796666,
          0.13922755963807,
          -0.9888849147668
        ],
        "ImagePositionPatient": [
          -677.8706133972,
          -170.55715654583,
          730.63692076772
        ],
        "ImageType": [
          "ORIGINAL",
          "PRIMARY",
          "M",
          "MB",
          "ND",
          "MOSAIC"
        ],
        "ImagedNucleus": "1H",
        "ImagingFrequency": 297.205591,
        "InPlanePhaseEncodingDirection": "COL",
        "LargestImagePixelValue": 4095,
        "MRAcquisitionType": "2D",
        "MagneticFieldStrength": 6.98,
        "Manufacturer": "SIEMENS",
        "ManufacturerModelName": "Investigational_Device_7T",
        "Modality": "MR",
        "NumberOfAverages": 1.0,
        "NumberOfPhaseEncodingSteps": 141,
        "PercentPhaseFieldOfView": 100.0,
        "PercentSampling": 100.0,
        "PerformedProcedureStepStartTime": "115315.781000",
        "PhotometricInterpretation": "MONOCHROME2",
        "PixelBandwidth": 1400.0,
        "PixelRepresentation": 0,
        "PixelSpacing": [
          1.0957447290421,
          1.0957447290421
        ],
        "ProtocolName": "cmrr_mbep2d_bold_AP_run8",
        "RepetitionTime": 2600.0,
        "Rows": 1316,
        "SAR": 0.09443512897387,
        "SamplesPerPixel": 1,
        "ScanOptions": [
          "PFP",
          "FS"
        ],
        "ScanningSequence": "EP",
        "SequenceName": "epfid2d1_188",
        "SequenceVariant": [
          "SK",
          "SS"
        ],
        "SeriesDescription": "cmrr_mbep2d_bold_AP_run8",
        "SeriesNumber": 21,
        "SeriesTime": "131914.765000",
        "SliceLocation": -46.969783483275,
        "SliceThickness": 1.1000000238419,
        "SmallestImagePixelValue": 0,
        "SoftwareVersions": "syngo MR B17",
        "SpacingBetweenSlices": 1.0999997227305,
        "SpecificCharacterSet": "ISO_IR 100",
        "StudyID": "1",
        "StudyTime": "115315.687000",
        "TransmitCoilName": "32Ch_Head_7T",
        "VariableFlipAngleFlag": "N",
        "WindowCenterWidthExplanation": "Algo1",
        "dBdt": 0.0
      },
      "slices": {}
    },
    "modality": "bold",
    "run_id": 8,
    "session_id": "SES03",
    "subject_id": "S11",
    "task_id": "auditory",
    "time": {
      "samples": {
        "AcquisitionNumber": [
          1,
          2,
          3,
          4,
          5,
          6,
          7,
          8,
          9,
          10,
          11,
          12,
          13,
          14,
          15,
          16,
          17,
          18,
          19,
          20,
          21,
          22,
          23,
          24,
          25,
          26,
          27,
          28,
          29,
          30,
          31,
          32,
          33,
          34,
          35,
          36,
          37,
          38,
          39,
          40,
          41,
          42,
          43,
          44,
          45,
          46,
          47,
          48,
          49,
          50,
          51,
          52,
          53,
          54,
          55,
          56,
          57,
          58,
          59,
          60,
          61,
          62,
          63,
          64,
          65,
          66,
          67,
          68,
          69,
          70,
          71,
          72,
          73,
          74,
          75,
          76,
          77,
          78,
          79,
          80,
          81,
          82,
          83,
          84,
          85,
          86,
          87,
          88,
          89,
          90,
          91,
          92,
          93,
          94,
          95,
          96,
          97,
          98,
          99,
          100,
          101,
          102,
          103,
          104,
          105,
          106,
          107,
          108,
          109,
          110,
          111,
          112,
          113,
          114,
          115,
          116,
          117,
          118,
          119,
          120,
          121,
          122,
          123,
          124,
          125,
          126,
          127,
          128,
          129,
          130,
          131,
          132,
          133,
          134,
          135,
          136,
          137,
          138,
          139,
          140,
          141,
          142,
          143,
          144,
          145,
          146,
          147,
          148,
          149,
          150
        ],
        "AcquisitionTime": [
          "131905.395000",
          "131908.005000",
          "131910.615000",
          "131913.225000",
          "131915.837500",
          "131918.447500",
          "131921.057500",
          "131923.667500",
          "131926.277500",
          "131928.890000",
          "131931.500000",
          "131934.110000",
          "131936.720000",
          "131939.330000",
          "131941.940000",
          "131944.552500",
          "131947.162500",
          "131949.772500",
          "131952.382500",
          "131954.992500",
          "131957.602500",
          "132000.215000",
          "132002.825000",
          "132005.435000",
          "132008.045000",
          "132010.655000",
          "132013.267500",
          "132015.877500",
          "132018.487500",
          "132021.097500",
          "132023.707500",
          "132026.317500",
          "132028.930000",
          "132031.540000",
          "132034.150000",
          "132036.760000",
          "132039.370000",
          "132041.980000",
          "132044.592500",
          "132047.202500",
          "132049.812500",
          "132052.422500",
          "132055.032500",
          "132057.645000",
          "132100.255000",
          "132102.865000",
          "132105.475000",
          "132108.085000",
          "132110.695000",
          "132113.307500",
          "132115.917500",
          "132118.527500",
          "132121.137500",
          "132123.747500",
          "132126.357500",
          "132128.970000",
          "132131.580000",
          "132134.190000",
          "132136.800000",
          "132139.410000",
          "132142.022500",
          "132144.632500",
          "132147.242500",
          "132149.852500",
          "132152.462500",
          "132155.072500",
          "132157.685000",
          "132200.295000",
          "132202.905000",
          "132205.515000",
          "132208.125000",
          "132210.735000",
          "132213.347500",
          "132215.957500",
          "132218.567500",
          "132221.177500",
          "132223.787500",
          "132226.400000",
          "132229.010000",
          "132231.620000",
          "132234.230000",
          "132236.840000",
          "132239.450000",
          "132242.062500",
          "132244.672500",
          "132247.282500",
          "132249.892500",
          "132252.502500",
          "132255.112500",
          "132257.725000",
          "132300.335000",
          "132302.945000",
          "132305.555000",
          "132308.165000",
          "132310.777500",
          "132313.387500",
          "132315.997500",
          "132318.607500",
          "132321.217500",
          "132323.827500",
          "132326.440000",
          "132329.050000",
          "132331.660000",
          "132334.270000",
          "132336.880000",
          "132339.490000",
          "132342.102500",
          "132344.712500",
          "132347.322500",
          "132349.932500",
          "132352.542500",
          "132355.155000",
          "132357.765000",
          "132400.375000",
          "132402.985000",
          "132405.595000",
          "132408.205000",
          "132410.817500",
          "132413.427500",
          "132416.037500",
          "132418.647500",
          "132421.257500",
          "132423.867500",
          "132426.480000",
          "132429.090000",
          "132431.700000",
          "132434.310000",
          "132436.920000",
          "132439.532500",
          "132442.142500",
          "132444.752500",
          "132447.362500",
          "132449.972500",
          "132452.582500",
          "132455.195000",
          "132457.805000",
          "132500.415000",
          "132503.025000",
          "132505.635000",
          "132508.245000",
          "132510.857500",
          "132513.467500",
          "132516.077500",
          "132518.687500",
          "132521.297500",
          "132523.910000",
          "132526.520000",
          "132529.130000",
          "132531.740000",
          "132534.350000"
        ],
        "ContentTime": [
          "131914.765000",
          "131915.750000",
          "131915.765000",
          "131917.750000",
          "131920.750000",
          "131923.250000",
          "131925.750000",
          "131928.250000",
          "131930.750000",
          "131933.250000",
          "131936.250000",
          "131938.750000",
          "131941.250000",
          "131943.750000",
          "131946.250000",
          "131949.250000",
          "131951.750000",
          "131954.250000",
          "131956.750000",
          "131959.750000",
          "132002.250000",
          "132004.750000",
          "132007.250000",
          "132009.750000",
          "132012.250000",
          "132015.250000",
          "132017.750000",
          "132020.250000",
          "132022.750000",
          "132025.250000",
          "132028.250000",
          "132030.750000",
          "132033.250000",
          "132035.750000",
          "132038.750000",
          "132041.250000",
          "132043.750000",
          "132046.250000",
          "132048.750000",
          "132051.250000",
          "132054.250000",
          "132056.750000",
          "132059.250000",
          "132101.750000",
          "132104.250000",
          "132107.250000",
          "132109.750000",
          "132112.250000",
          "132114.750000",
          "132117.750000",
          "132120.250000",
          "132122.750000",
          "132125.250000",
          "132127.750000",
          "132130.250000",
          "132133.250000",
          "132135.750000",
          "132138.250000",
          "132140.750000",
          "132143.750000",
          "132146.250000",
          "132148.750000",
          "132151.250000",
          "132153.750000",
          "132156.250000",
          "132159.250000",
          "132201.750000",
          "132204.250000",
          "132206.750000",
          "132209.250000",
          "132212.250000",
          "132214.750000",
          "132217.250000",
          "132219.750000",
          "132222.250000",
          "132225.250000",
          "132227.750000",
          "132230.250000",
          "132232.750000",
          "132235.250000",
          "132238.250000",
          "132240.750000",
          "132243.250000",
          "132245.750000",
          "132248.250000",
          "132251.250000",
          "132253.750000",
          "132256.250000",
          "132258.750000",
          "132301.250000",
          "132304.250000",
          "132306.750000",
          "132309.250000",
          "132311.750000",
          "132314.250000",
          "132317.250000",
          "132319.750000",
          "132322.250000",
          "132324.750000",
          "132327.750000",
          "132330.250000",
          "132332.750000",
          "132335.250000",
          "132337.750000",
          "132340.250000",
          "132343.250000",
          "132345.750000",
          "132348.250000",
          "132350.750000",
          "132353.250000",
          "132356.250000",
          "132358.750000",
          "132401.250000",
          "132403.750000",
          "132406.250000",
          "132409.250000",
          "132411.750000",
          "132414.250000",
          "132416.750000",
          "132419.750000",
          "132422.250000",
          "132424.750000",
          "132427.250000",
          "132429.765000",
          "132432.250000",
          "132435.250000",
          "132437.750000",
          "132440.250000",
          "132442.750000",
          "132445.750000",
          "132448.250000",
          "132450.750000",
          "132453.250000",
          "132455.750000",
          "132458.750000",
          "132501.250000",
          "132503.750000",
          "132506.250000",
          "132508.750000",
          "132511.250000",
          "132514.250000",
          "132516.750000",
          "132519.250000",
          "132521.750000",
          "132524.750000",
          "132527.250000",
          "132529.750000",
          "132532.250000",
          "132534.750000",
          "132542.250000"
        ],
        "InstanceCreationTime": [
          "131914.765000",
          "131915.750000",
          "131915.765000",
          "131917.750000",
          "131920.750000",
          "131923.250000",
          "131925.750000",
          "131928.250000",
          "131930.750000",
          "131933.250000",
          "131936.250000",
          "131938.750000",
          "131941.250000",
          "131943.750000",
          "131946.250000",
          "131949.250000",
          "131951.750000",
          "131954.250000",
          "131956.750000",
          "131959.750000",
          "132002.250000",
          "132004.750000",
          "132007.250000",
          "132009.750000",
          "132012.250000",
          "132015.250000",
          "132017.750000",
          "132020.250000",
          "132022.750000",
          "132025.250000",
          "132028.250000",
          "132030.750000",
          "132033.250000",
          "132035.750000",
          "132038.750000",
          "132041.250000",
          "132043.750000",
          "132046.250000",
          "132048.750000",
          "132051.250000",
          "132054.250000",
          "132056.750000",
          "132059.250000",
          "132101.750000",
          "132104.250000",
          "132107.250000",
          "132109.750000",
          "132112.250000",
          "132114.750000",
          "132117.750000",
          "132120.250000",
          "132122.750000",
          "132125.250000",
          "132127.750000",
          "132130.250000",
          "132133.250000",
          "132135.750000",
          "132138.250000",
          "132140.750000",
          "132143.750000",
          "132146.250000",
          "132148.750000",
          "132151.250000",
          "132153.750000",
          "132156.250000",
          "132159.250000",
          "132201.750000",
          "132204.250000",
          "132206.750000",
          "132209.250000",
          "132212.250000",
          "132214.750000",
          "132217.250000",
          "132219.750000",
          "132222.250000",
          "132225.250000",
          "132227.750000",
          "132230.250000",
          "132232.750000",
          "132235.250000",
          "132238.250000",
          "132240.750000",
          "132243.250000",
          "132245.750000",
          "132248.250000",
          "132251.250000",
          "132253.750000",
          "132256.250000",
          "132258.750000",
          "132301.250000",
          "132304.250000",
          "132306.750000",
          "132309.250000",
          "132311.750000",
          "132314.250000",
          "132317.250000",
          "132319.750000",
          "132322.250000",
          "132324.750000",
          "132327.750000",
          "132330.250000",
          "132332.750000",
          "132335.250000",
          "132337.750000",
          "132340.250000",
          "132343.250000",
          "132345.750000",
          "132348.250000",
          "132350.750000",
          "132353.250000",
          "132356.250000",
          "132358.750000",
          "132401.250000",
          "132403.750000",
          "132406.250000",
          "132409.250000",
          "132411.750000",
          "132414.250000",
          "132416.750000",
          "132419.750000",
          "132422.250000",
          "132424.750000",
          "132427.250000",
          "132429.765000",
          "132432.250000",
          "132435.250000",
          "132437.750000",
          "132440.250000",
          "132442.750000",
          "132445.750000",
          "132448.250000",
          "132450.750000",
          "132453.250000",
          "132455.750000",
          "132458.750000",
          "132501.250000",
          "132503.750000",
          "132506.250000",
          "132508.750000",
          "132511.250000",
          "132514.250000",
          "132516.750000",
          "132519.250000",
          "132521.750000",
          "132524.750000",
          "132527.250000",
          "132529.750000",
          "132532.250000",
          "132534.750000",
          "132542.250000"
        ],
        "InstanceNumber": [
          1,
          2,
          3,
          4,
          5,
          6,
          7,
          8,
          9,
          10,
          11,
          12,
          13,
          14,
          15,
          16,
          17,
          18,
          19,
          20,
          21,
          22,
          23,
          24,
          25,
          26,
          27,
          28,
          29,
          30,
          31,
          32,
          33,
          34,
          35,
          36,
          37,
          38,
          39,
          40,
          41,
          42,
          43,
          44,
          45,
          46,
          47,
          48,
          49,
          50,
          51,
          52,
          53,
          54,
          55,
          56,
          57,
          58,
          59,
          60,
          61,
          62,
          63,
          64,
          65,
          66,
          67,
          68,
          69,
          70,
          71,
          72,
          73,
          74,
          75,
          76,
          77,
          78,
          79,
          80,
          81,
          82,
          83,
          84,
          85,
          86,
          87,
          88,
          89,
          90,
          91,
          92,
          93,
          94,
          95,
          96,
          97,
          98,
          99,
          100,
          101,
          102,
          103,
          104,
          105,
          106,
          107,
          108,
          109,
          110,
          111,
          112,
          113,
          114,
          115,
          116,
          117,
          118,
          119,
          120,
          121,
          122,
          123,
          124,
          125,
          126,
          127,
          128,
          129,
          130,
          131,
          132,
          133,
          134,
          135,
          136,
          137,
          138,
          139,
          140,
          141,
          142,
          143,
          144,
          145,
          146,
          147,
          148,
          149,
          150
        ],
        "WindowCenter": [
          868.0,
          867.0,
          866.0,
          866.0,
          866.0,
          867.0,
          867.0,
          868.0,
          869.0,
          871.0,
          870.0,
          870.0,
          869.0,
          869.0,
          868.0,
          868.0,
          867.0,
          867.0,
          867.0,
          866.0,
          866.0,
          867.0,
          867.0,
          867.0,
          867.0,
          867.0,
          866.0,
          865.0,
          866.0,
          867.0,
          867.0,
          867.0,
          868.0,
          869.0,
          868.0,
          867.0,
          867.0,
          867.0,
          867.0,
          866.0,
          866.0,
          866.0,
          867.0,
          867.0,
          866.0,
          867.0,
          867.0,
          866.0,
          867.0,
          867.0,
          867.0,
          867.0,
          867.0,
          867.0,
          867.0,
          867.0,
          866.0,
          866.0,
          867.0,
          868.0,
          868.0,
          867.0,
          868.0,
          868.0,
          867.0,
          868.0,
          868.0,
          869.0,
          869.0,
          870.0,
          870.0,
          869.0,
          868.0,
          869.0,
          870.0,
          869.0,
          869.0,
          868.0,
          868.0,
          867.0,
          868.0,
          868.0,
          866.0,
          866.0,
          866.0,
          867.0,
          866.0,
          865.0,
          865.0,
          865.0,
          865.0,
          866.0,
          868.0,
          867.0,
          866.0,
          865.0,
          866.0,
          868.0,
          868.0,
          867.0,
          867.0,
          868.0,
          868.0,
          868.0,
          868.0,
          868.0,
          868.0,
          867.0,
          868.0,
          867.0,
          868.0,
          868.0,
          868.0,
          867.0,
          867.0,
          866.0,
          866.0,
          866.0,
          868.0,
          867.0,
          868.0,
          867.0,
          866.0,
          866.0,
          867.0,
          867.0,
          868.0,
          868.0,
          867.0,
          867.0,
          866.0,
          866.0,
          866.0,
          867.0,
          869.0,
          869.0,
          869.0,
          868.0,
          868.0,
          868.0,
          869.0,
          868.0,
          868.0,
          868.0,
          868.0,
          868.0,
          868.0,
          867.0,
          867.0,
          868.0
        ],
        "WindowWidth": [
          1991.0,
          1985.0,
          1983.0,
          1981.0,
          1983.0,
          1986.0,
          1988.0,
          1989.0,
          1994.0,
          2001.0,
          1999.0,
          1998.0,
          1995.0,
          1993.0,
          1990.0,
          1989.0,
          1988.0,
          1986.0,
          1987.0,
          1985.0,
          1985.0,
          1987.0,
          1988.0,
          1988.0,
          1988.0,
          1987.0,
          1984.0,
          1982.0,
          1984.0,
          1988.0,
          1989.0,
          1988.0,
          1992.0,
          1996.0,
          1991.0,
          1988.0,
          1988.0,
          1986.0,
          1986.0,
          1985.0,
          1985.0,
          1982.0,
          1987.0,
          1988.0,
          1985.0,
          1988.0,
          1988.0,
          1984.0,
          1989.0,
          1988.0,
          1987.0,
          1988.0,
          1989.0,
          1988.0,
          1986.0,
          1987.0,
          1984.0,
          1983.0,
          1987.0,
          1994.0,
          1991.0,
          1988.0,
          1991.0,
          1994.0,
          1989.0,
          1994.0,
          1994.0,
          1998.0,
          1996.0,
          1999.0,
          2000.0,
          1996.0,
          1992.0,
          1997.0,
          1999.0,
          1997.0,
          1995.0,
          1993.0,
          1990.0,
          1990.0,
          1990.0,
          1990.0,
          1985.0,
          1984.0,
          1985.0,
          1986.0,
          1986.0,
          1982.0,
          1982.0,
          1982.0,
          1981.0,
          1985.0,
          1991.0,
          1989.0,
          1985.0,
          1982.0,
          1985.0,
          1993.0,
          1990.0,
          1988.0,
          1989.0,
          1992.0,
          1992.0,
          1991.0,
          1991.0,
          1991.0,
          1990.0,
          1990.0,
          1990.0,
          1989.0,
          1991.0,
          1993.0,
          1991.0,
          1987.0,
          1987.0,
          1985.0,
          1984.0,
          1986.0,
          1991.0,
          1990.0,
          1991.0,
          1987.0,
          1985.0,
          1987.0,
          1987.0,
          1988.0,
          1991.0,
          1990.0,
          1987.0,
          1989.0,
          1986.0,
          1985.0,
          1986.0,
          1991.0,
          1995.0,
          1995.0,
          1994.0,
          1992.0,
          1991.0,
          1990.0,
          1994.0,
          1992.0,
          1991.0,
          1992.0,
          1991.0,
          1991.0,
          1990.0,
          1990.0,
          1990.0,
          1990.0
        ]
      },
      "slices": {}
    }
  },
  "dummy_trs": 0,
  "dvars_nstd": 70.81039290469802,
  "dvars_std": 1.0602261327516778,
  "dvars_vstd": 1.0110805768456375,
  "efc": 0.5610353866526304,
  "fber": 398.16339111328125,
  "fd_mean": 0.046132851756124436,
  "fd_num": 0,
  "fd_perc": 0.0,
  "fwhm_avg": 2.838854014616487,
  "fwhm_x": 2.772689586794626,
  "fwhm_y": 2.6951715319514524,
  "fwhm_z": 3.0487009251033816,
  "gcor": 0.00278185,
  "gsr_x": -0.0042304182425141335,
  "gsr_y": 0.047619834542274475,
  "provenance": {
    "md5sum": "76376c93a5edb6219b5ea15d6400f1fc",
    "settings": {
      "fd_thres": 0.2,
      "testing": false
    },
    "software": "mriqc",
    "version": "23.0.1",
    "webapi_port": null,
    "webapi_url": "https://mriqc.nimh.nih.gov/api/v1"
  },
  "size_t": 150,
  "size_x": 188,
  "size_y": 188,
  "size_z": 46,
  "snr": 2.246210763471439,
  "spacing_tr": 2.5999999046325684,
  "spacing_x": 1.0957447290420532,
  "spacing_y": 1.0957447290420532,
  "spacing_z": 1.0999996662139893,
  "summary_bg_k": 65.00005285036787,
  "summary_bg_mad": 22.40706348964992,
  "summary_bg_mean": 79.66496276855469,
  "summary_bg_median": 46.45333480834961,
  "summary_bg_n": 1048028.0,
  "summary_bg_p05": 29.6200008392334,
  "summary_bg_p95": 226.41334533691406,
