{
  "aor": 0.0006791333333333333,
  "aqi": 0.012526971333333333,
  "bids_meta": {
    "AcquisitionMatrixPE": 188,
    "AcquisitionNumber": 1,
    "AcquisitionTime": "12:37:27.005000",
    "BandwidthPerPixelPhaseEncode": 19.46,
    "BaseResolution": 188,
    "ConversionSoftware": "dcm2niix",
    "ConversionSoftwareVersion": "v1.0.20180606 GCC4.8.5",
    "DelayTime": 1.2,
    "DerivedVendorReportedEchoSpacing": 0.000820013,
    "DeviceSerialNumber": "18930",
    "DwellTime": 1.9e-06,
    "EchoTime": 0.02,
    "EffectiveEchoSpacing": 0.000273338,
    "FlipAngle": 80,
    "ImageComments": "Unaliased_MB2_PE2",
    "ImageOrientationPatientDICOM": [
      0.998247,
      0.034978,
      -0.0477451,
      -0.0521758,
      0.139228,
      -0.988885
    ],
    "ImageType": [
      "ORIGINAL",
      "PRIMARY",
      "M",
      "MB",
      "ND",
      "MOSAIC"
    ],
    "InPlanePhaseEncodingDirectionDICOM": "COL",
    "InstitutionAddress": "Oxfordlaan_55_Maastricht_753AAF_Limburg_NL_6229_EV",
    "InstitutionName": "Scannexus",
    "InstitutionalDepartmentName": "MRI_7T",
    "MRAcquisitionType": "2D",
    "MagneticFieldStrength": 6.98,
    "Manufacturer": "Siemens",
    "ManufacturersModelName": "Investigational_Device_7T",
    "Modality": "MR",
    "MultibandAccelerationFactor": 2,
    "ParallelReductionFactorInPlane": 3,
    "PartialFourier": 0.75,
    "PatientPosition": "HFS",
    "PercentPhaseFOV": 100,
    "PhaseEncodingDirection": "j",
    "PhaseEncodingSteps": 141,
    "PhaseResolution": 1,
    "PixelBandwidth": 1400,
    "ProcedureStepDescription": "FeDem_Faruk",
    "ProtocolName": "cmrr_mbep2d_bold_AP_run3",
    "PulseSequenceDetails": "%CustomerSeq%_cmrr_mbep2d_bold",
    "ReceiveCoilName": "32Ch_Head_7T",
    "ReconMatrixPE": 188,
    "RepetitionTime": 2.6,
    "SAR": 0.0946702,
    "ScanOptions": "PFP_FS",
    "ScanningSequence": "EP",
    "SequenceName": "epfid2d1_188",
    "SequenceVariant": "SK_SS",
    "SeriesDescription": "cmrr_mbep2d_bold_AP_run3",
    "SeriesNumber": 14,
    "ShimSetting": [
      49,
      -92,
      482,
      429,
      -59,
      -52,
      -137,
      172
    ],
    "SliceThickness": 1.1,
    "SliceTiming": [
      0,
      0.7325,
      0.06,
      0.795,
      0.1225,
      0.855,
      0.1825,
      0.915,
      0.245,
      0.9775,
      0.305,
      1.0375,
      0.365,
      1.1,
      0.4275,
      1.16,
      0.4875,
      1.2225,
      0.55,
      1.2825,
      0.61,
      1.345,
      0.6725,
      0,
      0.7325,
      0.06,
      0.795,
      0.1225,
      0.855,
      0.1825,
      0.915,
      0.245,
      0.9775,
      0.305,
      1.0375,
      0.365,
      1.1,
      0.4275,
      1.16,
      0.4875,
      1.2225,
      0.55,
      1.2825,
      0.61,
      1.345,
      0.6725
    ],
    "SoftwareVersions": "syngo_MR_B17",
    "SpacingBetweenSlices": 1.1,
    "StationName": "MRC18930",
    "TaskName": "auditory",
    "TotalReadoutTime": 0.0511141,
    "TxRefAmp": 235,
    "dataset": "ds001942",
    "dcmmeta_affine": [
      [
        -1.093823790550232,
        -0.05717133730649948,
        0.03073599748313427,
        103.88965606689453
      ],
      [
        -0.03832700103521347,
        0.1525578647851944,
        -1.0886064767837524,
        34.36977005004883
      ],
      [
        -0.052316438406705856,
        1.0835654735565186,
        0.1548893004655838,
        -112.62718963623047
      ],
      [
        0.0,
        0.0,
        0.0,
        1.0
      ]
    ],
    "dcmmeta_reorient_transform": [
      [
        0.0,
        -1.0,
        0.0,
        187.0
      ],
      [
        1.0,
        0.0,
        0.0,
        0.0
      ],
      [
        0.0,
        0.0,
        1.0,
        0.0
      ],
      [
        0.0,
        0.0,
        0.0,
        1.0
      ]
    ],
    "dcmmeta_shape": [
      188,
      188,
      46,
      150
    ],
    "dcmmeta_slice_dim": 2,
    "dcmmeta_version": 0.6,
    "global": {
      "const": {
        "AcquisitionMatrix": [
          188,
          0,
          0,
          188
        ],
        "AngioFlag": "N",
        "BitsAllocated": 16,
        "BitsStored": 12,
        "Columns": 1316,
        "EchoNumbers": 1,
        "EchoTime": 20.0,
        "EchoTrainLength": 1,
        "FlipAngle": 80.0,
        "HighBit": 11,
        "ImageOrientationPatient": [
          0.99824693467065,
          0.03497803943101,
          -0.0477450958552,
          -0.0521757796666,
          0.13922755963807,
          -0.9888849147668
        ],
        "ImagePositionPatient": [
          -677.8706133972,
          -170.55715654583,
          730.63692076772
        ],
        "ImageType": [
          "ORIGINAL",
          "PRIMARY",
          "M",
          "MB",
          "ND",
          "MOSAIC"
        ],
        "ImagedNucleus": "1H",
        "ImagingFrequency": 297.205574,
        "InPlanePhaseEncodingDirection": "COL",
        "LargestImagePixelValue": 4095,
        "MRAcquisitionType": "2D",
        "MagneticFieldStrength": 6.98,
        "Manufacturer": "SIEMENS",
        "ManufacturerModelName": "Investigational_Device_7T",
        "Modality": "MR",
        "NumberOfAverages": 1.0,
        "NumberOfPhaseEncodingSteps": 141,
        "PercentPhaseFieldOfView": 100.0,
        "PercentSampling": 100.0,
        "PerformedProcedureStepStartTime": "115315.781000",
        "PhotometricInterpretation": "MONOCHROME2",
        "PixelBandwidth": 1400.0,
        "PixelRepresentation": 0,
        "PixelSpacing": [
          1.0957447290421,
          1.0957447290421
        ],
        "ProtocolName": "cmrr_mbep2d_bold_AP_run3",
        "RepetitionTime": 2600.0,
        "Rows": 1316,
        "SAR": 0.09467023828408,
        "SamplesPerPixel": 1,
        "ScanOptions": [
          "PFP",
          "FS"
        ],
        "ScanningSequence": "EP",
        "SequenceName": "epfid2d1_188",
        "SequenceVariant": [
          "SK",
          "SS"
        ],
        "SeriesDescription": "cmrr_mbep2d_bold_AP_run3",
        "SeriesNumber": 14,
        "SeriesTime": "123736.625000",
        "SliceLocation": -46.969783483275,
        "SliceThickness": 1.1000000238419,
        "SmallestImagePixelValue": 0,
        "SoftwareVersions": "syngo MR B17",
        "SpacingBetweenSlices": 1.0999997227305,
        "SpecificCharacterSet": "ISO_IR 100",
        "StudyID": "1",
        "StudyTime": "115315.687000",
        "TransmitCoilName": "32Ch_Head_7T",
        "VariableFlipAngleFlag": "N",
        "WindowCenterWidthExplanation": "Algo1",
        "dBdt": 0.0
      },
      "slices": {}
    },
    "modality": "bold",
    "run_id": 3,
    "session_id": "SES03",
    "subject_id": "S11",
    "task_id": "auditory",
    "time": {
      "samples": {
        "AcquisitionNumber": [
          1,
          2,
          3,
          4,
          5,
          6,
          7,
          8,
          9,
          10,
          11,
          12,
          13,
          14,
          15,
          16,
          17,
          18,
          19,
          20,
          21,
          22,
          23,
          24,
          25,
          26,
          27,
          28,
          29,
          30,
          31,
          32,
          33,
          34,
          35,
          36,
          37,
          38,
          39,
          40,
          41,
          42,
          43,
          44,
          45,
          46,
          47,
          48,
          49,
          50,
          51,
          52,
          53,
          54,
          55,
          56,
          57,
          58,
          59,
          60,
          61,
          62,
          63,
          64,
          65,
          66,
          67,
          68,
          69,
          70,
          71,
          72,
          73,
          74,
          75,
          76,
          77,
          78,
          79,
          80,
          81,
          82,
          83,
          84,
          85,
          86,
          87,
          88,
          89,
          90,
          91,
          92,
          93,
          94,
          95,
          96,
          97,
          98,
          99,
          100,
          101,
          102,
          103,
          104,
          105,
          106,
          107,
          108,
          109,
          110,
          111,
          112,
          113,
          114,
          115,
          116,
          117,
          118,
          119,
          120,
          121,
          122,
          123,
          124,
          125,
          126,
          127,
          128,
          129,
          130,
          131,
          132,
          133,
          134,
          135,
          136,
          137,
          138,
          139,
          140,
          141,
          142,
          143,
          144,
          145,
          146,
          147,
          148,
          149,
          150
        ],
        "AcquisitionTime": [
          "123727.005000",
          "123729.615000",
          "123732.225000",
          "123734.835000",
          "123737.447500",
          "123740.057500",
          "123742.667500",
          "123745.277500",
          "123747.887500",
          "123750.497500",
          "123753.110000",
          "123755.720000",
          "123758.330000",
          "123800.940000",
          "123803.550000",
          "123806.160000",
          "123808.772500",
          "123811.382500",
          "123813.992500",
          "123816.602500",
          "123819.212500",
          "123821.825000",
          "123824.435000",
          "123827.045000",
          "123829.655000",
          "123832.265000",
          "123834.875000",
          "123837.487500",
          "123840.097500",
          "123842.707500",
          "123845.317500",
          "123847.927500",
          "123850.537500",
          "123853.150000",
          "123855.760000",
          "123858.370000",
          "123900.980000",
          "123903.590000",
          "123906.202500",
          "123908.812500",
          "123911.422500",
          "123914.032500",
          "123916.642500",
          "123919.252500",
          "123921.865000",
          "123924.475000",
          "123927.085000",
          "123929.695000",
          "123932.305000",
          "123934.915000",
          "123937.527500",
          "123940.137500",
          "123942.747500",
          "123945.357500",
          "123947.967500",
          "123950.580000",
          "123953.190000",
          "123955.800000",
          "123958.410000",
          "124001.020000",
          "124003.630000",
          "124006.242500",
          "124008.852500",
          "124011.462500",
          "124014.072500",
          "124016.682500",
          "124019.292500",
          "124021.905000",
          "124024.515000",
          "124027.125000",
          "124029.735000",
          "124032.345000",
          "124034.957500",
          "124037.567500",
          "124040.177500",
          "124042.787500",
          "124045.397500",
          "124048.007500",
          "124050.620000",
          "124053.230000",
          "124055.840000",
          "124058.450000",
          "124101.060000",
          "124103.670000",
          "124106.282500",
          "124108.892500",
          "124111.502500",
          "124114.112500",
          "124116.722500",
          "124119.335000",
          "124121.945000",
          "124124.555000",
          "124127.165000",
          "124129.775000",
          "124132.385000",
          "124134.997500",
          "124137.607500",
          "124140.217500",
          "124142.827500",
          "124145.437500",
          "124148.047500",
          "124150.660000",
          "124153.270000",
          "124155.880000",
          "124158.490000",
          "124201.100000",
          "124203.712500",
          "124206.322500",
          "124208.932500",
          "124211.542500",
          "124214.152500",
          "124216.762500",
          "124219.375000",
          "124221.985000",
          "124224.595000",
          "124227.205000",
          "124229.815000",
          "124232.425000",
          "124235.037500",
          "124237.647500",
          "124240.257500",
          "124242.867500",
          "124245.477500",
          "124248.090000",
          "124250.700000",
          "124253.310000",
          "124255.920000",
          "124258.530000",
          "124301.140000",
          "124303.752500",
          "124306.362500",
          "124308.972500",
          "124311.582500",
          "124314.192500",
          "124316.802500",
          "124319.415000",
          "124322.025000",
          "124324.635000",
          "124327.245000",
          "124329.855000",
          "124332.467500",
          "124335.077500",
          "124337.687500",
          "124340.297500",
          "124342.907500",
          "124345.517500",
          "124348.130000",
          "124350.740000",
          "124353.350000",
          "124355.960000"
        ],
        "ContentTime": [
          "123736.640000",
          "123737.125000",
          "123737.625000",
          "123740.125000",
          "123742.625000",
          "123745.125000",
          "123747.625000",
          "123750.625000",
          "123753.125000",
          "123755.625000",
          "123758.125000",
          "123800.625000",
          "123803.625000",
          "123806.125000",
          "123808.625000",
          "123811.125000",
          "123813.625000",
          "123816.625000",
          "123819.125000",
          "123821.625000",
          "123824.125000",
          "123826.625000",
          "123829.625000",
          "123832.125000",
          "123834.625000",
          "123837.125000",
          "123839.625000",
          "123842.625000",
          "123845.125000",
          "123847.625000",
          "123850.125000",
          "123852.625000",
          "123855.625000",
          "123858.125000",
          "123900.625000",
          "123903.125000",
          "123905.625000",
          "123908.625000",
          "123911.125000",
          "123913.625000",
          "123916.125000",
          "123918.625000",
          "123921.625000",
          "123924.125000",
          "123926.625000",
          "123929.125000",
          "123931.625000",
          "123934.625000",
          "123937.125000",
          "123939.625000",
          "123942.125000",
          "123944.625000",
          "123947.625000",
          "123950.125000",
          "123952.625000",
          "123955.125000",
          "123957.625000",
          "124000.625000",
          "124003.125000",
          "124005.625000",
          "124008.125000",
          "124010.625000",
          "124013.125000",
          "124016.125000",
          "124018.625000",
          "124021.125000",
          "124023.625000",
          "124026.625000",
          "124029.125000",
          "124031.625000",
          "124034.125000",
          "124036.625000",
          "124039.625000",
          "124042.125000",
          "124044.625000",
          "124047.125000",
          "124049.625000",
          "124052.625000",
          "124055.125000",
          "124057.625000",
          "124100.125000",
          "124102.625000",
          "124105.125000",
          "124108.125000",
          "124110.625000",
          "124113.125000",
          "124115.625000",
          "124118.625000",
          "124121.125000",
          "124123.625000",
          "124126.125000",
          "124128.625000",
          "124131.625000",
          "124134.125000",
          "124136.625000",
          "124139.125000",
          "124141.625000",
          "124144.625000",
          "124147.125000",
          "124149.625000",
          "124152.125000",
          "124154.625000",
          "124157.625000",
          "124200.125000",
          "124202.625000",
          "124205.125000",
          "124207.625000",
          "124210.625000",
          "124213.125000",
          "124215.625000",
          "124218.125000",
          "124220.625000",
          "124223.625000",
          "124226.125000",
          "124228.625000",
          "124231.125000",
          "124233.625000",
          "124236.625000",
          "124239.125000",
          "124241.625000",
          "124244.125000",
          "124246.625000",
          "124249.625000",
          "124252.125000",
          "124254.625000",
          "124257.125000",
          "124259.625000",
          "124302.625000",
          "124305.125000",
          "124307.625000",
          "124310.125000",
          "124312.625000",
          "124315.625000",
          "124318.125000",
          "124320.625000",
          "124323.125000",
          "124325.625000",
          "124328.625000",
          "124331.125000",
          "124333.625000",
          "124336.125000",
          "124338.625000",
          "124341.125000",
          "124344.125000",
          "124346.625000",
          "124349.125000",
          "124351.625000",
          "124354.625000",
          "124357.125000",
          "124404.312000"
        ],
        "InstanceCreationTime": [
          "123736.640000",
          "123737.125000",
          "123737.625000",
          "123740.125000",
          "123742.625000",
          "123745.125000",
          "123747.625000",
          "123750.625000",
          "123753.125000",
          "123755.625000",
          "123758.125000",
          "123800.625000",
          "123803.625000",
          "123806.125000",
          "123808.625000",
          "123811.125000",
          "123813.625000",
          "123816.625000",
          "123819.125000",
          "123821.625000",
          "123824.125000",
          "123826.625000",
          "123829.625000",
          "123832.125000",
          "123834.625000",
          "123837.125000",
          "123839.625000",
          "123842.625000",
          "123845.125000",
          "123847.625000",
          "123850.125000",
          "123852.625000",
          "123855.625000",
          "123858.125000",
          "123900.625000",
          "123903.125000",
          "123905.625000",
          "123908.625000",
          "123911.125000",
          "123913.625000",
          "123916.125000",
          "123918.625000",
          "123921.625000",
          "123924.125000",
          "123926.625000",
          "123929.125000",
          "123931.625000",
          "123934.625000",
          "123937.125000",
          "123939.625000",
          "123942.125000",
          "123944.625000",
          "123947.625000",
          "123950.125000",
          "123952.625000",
          "123955.125000",
          "123957.625000",
          "124000.625000",
          "124003.125000",
          "124005.625000",
          "124008.125000",
          "124010.625000",
          "124013.125000",
          "124016.125000",
          "124018.625000",
          "124021.125000",
          "124023.625000",
          "124026.625000",
          "124029.125000",
          "124031.625000",
          "124034.125000",
          "124036.625000",
          "124039.625000",
          "124042.125000",
          "124044.625000",
          "124047.125000",
          "124049.625000",
          "124052.625000",
          "124055.125000",
          "124057.625000",
          "124100.125000",
          "124102.625000",
          "124105.125000",
          "124108.125000",
          "124110.625000",
          "124113.125000",
          "124115.625000",
          "124118.625000",
          "124121.125000",
          "124123.625000",
          "124126.125000",
          "124128.625000",
          "124131.625000",
          "124134.125000",
          "124136.625000",
          "124139.125000",
          "124141.625000",
          "124144.625000",
          "124147.125000",
          "124149.625000",
          "124152.125000",
          "124154.625000",
          "124157.625000",
          "124200.125000",
          "124202.625000",
          "124205.125000",
          "124207.625000",
          "124210.625000",
          "124213.125000",
          "124215.625000",
          "124218.125000",
          "124220.625000",
          "124223.625000",
          "124226.125000",
          "124228.625000",
          "124231.125000",
          "124233.625000",
          "124236.625000",
          "124239.125000",
          "124241.625000",
          "124244.125000",
          "124246.625000",
          "124249.625000",
          "124252.125000",
          "124254.625000",
          "124257.125000",
          "124259.625000",
          "124302.625000",
          "124305.125000",
          "124307.625000",
          "124310.125000",
          "124312.625000",
          "124315.625000",
          "124318.125000",
          "124320.625000",
          "124323.125000",
          "124325.625000",
          "124328.625000",
          "124331.125000",
          "124333.625000",
          "124336.125000",
          "124338.625000",
          "124341.125000",
          "124344.125000",
          "124346.625000",
          "124349.125000",
          "124351.625000",
          "124354.625000",
          "124357.125000",
          "124404.312000"
        ],
        "InstanceNumber": [
          1,
          2,
          3,
          4,
          5,
          6,
          7,
          8,
          9,
          10,
          11,
          12,
          13,
          14,
          15,
          16,
          17,
          18,
          19,
          20,
          21,
          22,
          23,
          24,
          25,
          26,
          27,
          28,
          29,
          30,
          31,
          32,
          33,
          34,
          35,
          36,
          37,
          38,
          39,
          40,
          41,
          42,
          43,
          44,
          45,
          46,
          47,
          48,
          49,
          50,
          51,
          52,
          53,
          54,
          55,
          56,
          57,
          58,
          59,
          60,
          61,
          62,
          63,
          64,
          65,
          66,
          67,
          68,
          69,
          70,
          71,
          72,
          73,
          74,
          75,
          76,
          77,
          78,
          79,
          80,
          81,
          82,
          83,
          84,
          85,
          86,
          87,
          88,
          89,
          90,
          91,
          92,
          93,
          94,
          95,
          96,
          97,
          98,
          99,
          100,
          101,
          102,
          103,
          104,
          105,
          106,
          107,
          108,
          109,
          110,
          111,
          112,
          113,
          114,
          115,
          116,
          117,
          118,
          119,
          120,
          121,
          122,
          123,
          124,
          125,
          126,
          127,
          128,
          129,
          130,
          131,
          132,
          133,
          134,
          135,
          136,
          137,
          138,
          139,
          140,
          141,
          142,
          143,
          144,
          145,
          146,
          147,
          148,
          149,
          150
        ],
        "WindowCenter": [
          866.0,
          866.0,
          866.0,
          866.0,
          866.0,
          865.0,
          865.0,
          865.0,
          866.0,
          865.0,
          864.0,
          864.0,
          864.0,
          864.0,
          865.0,
          866.0,
          865.0,
          866.0,
          866.0,
          865.0,
          865.0,
          865.0,
          864.0,
          863.0,
          863.0,
          864.0,
          865.0,
          866.0,
          867.0,
          866.0,
          866.0,
          866.0,
          866.0,
          866.0,
          865.0,
          865.0,
          865.0,
          866.0,
          866.0,
          865.0,
          864.0,
          864.0,
          864.0,
          866.0,
          866.0,
          866.0,
          866.0,
          865.0,
          865.0,
          865.0,
          865.0,
          864.0,
          864.0,
          864.0,
          865.0,
          867.0,
          866.0,
          866.0,
          865.0,
          865.0,
          864.0,
          864.0,
          864.0,
          865.0,
          868.0,
          868.0,
          866.0,
          866.0,
          866.0,
          866.0,
          866.0,
          866.0,
          865.0,
          865.0,
          867.0,
          867.0,
          865.0,
          865.0,
          864.0,
          864.0,
          863.0,
          864.0,
          864.0,
          866.0,
          867.0,
          866.0,
          866.0,
          865.0,
          865.0,
          865.0,
          864.0,
          865.0,
          866.0,
          866.0,
          866.0,
          867.0,
          867.0,
          866.0,
          866.0,
          866.0,
          865.0,
          865.0,
          866.0,
          866.0,
          865.0,
          865.0,
          867.0,
          867.0,
          867.0,
          866.0,
          866.0,
          865.0,
          864.0,
          866.0,
          866.0,
          866.0,
          867.0,
          866.0,
          865.0,
          865.0,
          865.0,
          866.0,
          866.0,
          867.0,
          866.0,
          866.0,
          867.0,
          868.0,
          868.0,
          868.0,
          868.0,
          867.0,
          866.0,
          865.0,
          867.0,
          866.0,
          865.0,
          865.0,
          865.0,
          865.0,
          864.0,
          865.0,
          870.0,
          870.0,
          869.0,
          868.0,
          868.0,
          868.0,
          868.0,
          868.0
        ],
        "WindowWidth": [
          1984.0,
          1985.0,
          1986.0,
          1986.0,
          1983.0,
          1981.0,
          1979.0,
          1981.0,
          1983.0,
          1979.0,
          1977.0,
          1975.0,
          1977.0,
          1977.0,
          1981.0,
          1982.0,
          1980.0,
          1984.0,
          1986.0,
          1981.0,
          1982.0,
          1979.0,
          1975.0,
          1973.0,
          1975.0,
          1978.0,
          1979.0,
          1985.0,
          1987.0,
          1985.0,
          1986.0,
          1985.0,
          1983.0,
          1981.0,
          1980.0,
          1978.0,
          1978.0,
          1984.0,
          1983.0,
          1980.0,
          1977.0,
          1976.0,
          1979.0,
          1984.0,
          1985.0,
          1983.0,
          1982.0,
          1981.0,
          1977.0,
          1981.0,
          1978.0,
          1976.0,
          1975.0,
          1979.0,
          1983.0,
          1987.0,
          1983.0,
          1982.0,
          1981.0,
          1978.0,
          1977.0,
          1975.0,
          1978.0,
          1980.0,
          1990.0,
          1989.0,
          1982.0,
          1983.0,
          1983.0,
          1983.0,
          1985.0,
          1983.0,
          1979.0,
          1981.0,
          1987.0,
          1986.0,
          1980.0,
          1980.0,
          1977.0,
          1975.0,
          1975.0,
          1976.0,
          1979.0,
          1985.0,
          1986.0,
          1982.0,
          1982.0,
          1979.0,
          1978.0,
          1979.0,
          1977.0,
          1979.0,
          1984.0,
          1983.0,
          1983.0,
          1988.0,
          1985.0,
          1984.0,
          1983.0,
          1982.0,
          1981.0,
          1979.0,
          1982.0,
          1983.0,
          1981.0,
          1980.0,
          1987.0,
          1988.0,
          1988.0,
          1983.0,
          1983.0,
          1982.0,
          1978.0,
          1984.0,
          1984.0,
          1985.0,
          1987.0,
          1983.0,
          1980.0,
          1978.0,
          1980.0,
          1982.0,
          1984.0,
          1987.0,
          1982.0,
          1982.0,
          1987.0,
          1992.0,
          1991.0,
          1991.0,
          1989.0,
          1985.0,
          1981.0,
          1980.0,
          1987.0,
          1984.0,
          1980.0,
          1978.0,
          1979.0,
          1980.0,
          1978.0,
          1979.0,
          1997.0,
          1997.0,
          1991.0,
          1989.0,
          1989.0,
          1991.0,
          1991.0,
          1990.0
        ]
      },
      "slices": {}
    }
  },
  "dummy_trs": 0,
  "dvars_nstd": 68.17188211744964,
  "dvars_std": 1.0486182432885907,
  "dvars_vstd": 1.0189047540268457,
  "efc": 0.5617292682628252,
  "fber": 405.06494140625,
  "fd_mean": 0.047786731474357996,
  "fd_num": 0,
  "fd_perc": 0.0,
  "fwhm_avg": 2.818724091991213,
  "fwhm_x": 2.7606429853826895,
  "fwhm_y": 2.6722647368423913,
  "fwhm_z": 3.023264553748559,
  "gcor": 0.00375646,
  "gsr_x": -0.005851357243955135,
  "gsr_y": 0.04891755059361458,
  "provenance": {
    "md5sum": "adf2057cf5da0447b2d1596ba52fc884",
    "settings": {
      "fd_thres": 0.2,
      "testing": false
    },
    "software": "mriqc",
    "version": "23.0.1",
    "webapi_port": null,
    "webapi_url": "https://mriqc.nimh.nih.gov/api/v1"
  },
  "size_t": 150,
  "size_x": 188,
  "size_y": 188,
  "size_z": 46,
  "snr": 2.278818161996721,
  "spacing_tr": 2.5999999046325684,
  "spacing_x": 1.0957447290420532,
  "spacing_y": 1.0957447290420532,
  "spacing_z": 1.0999996662139893,
  "summary_bg_k": 62.078608430009254,
  "summary_bg_mad": 21.92274510593903,
  "summary_bg_mean": 79.57494354248047,
  "summary_bg_median": 46.14666748046875,
  "summary_bg_n": 1049742.0,
  "summary_bg_p05": 29.753334045410156,
  "summary_bg_p95": 227.12001037597656,
