{
  "aor": 0.0006608666666666667,
  "aqi": 0.011342462000000001,
  "bids_meta": {
    "AcquisitionMatrixPE": 188,
    "AcquisitionNumber": 1,
    "AcquisitionTime": "19:02:33.997500",
    "BandwidthPerPixelPhaseEncode": 19.46,
    "BaseResolution": 188,
    "ConversionSoftware": "dcm2niix",
    "ConversionSoftwareVersion": "v1.0.20180606 GCC4.8.5",
    "DelayTime": 1.2,
    "DerivedVendorReportedEchoSpacing": 0.000820013,
    "DeviceSerialNumber": "18930",
    "DwellTime": 1.9e-06,
    "EchoTime": 0.02,
    "EffectiveEchoSpacing": 0.000273338,
    "FlipAngle": 80,
    "ImageComments": "Unaliased_MB2_PE2",
    "ImageOrientationPatientDICOM": [
      0.999286,
      0.00236239,
      0.0377002,
      0.036887,
      0.154005,
      -0.987381
    ],
    "ImageType": [
      "ORIGINAL",
      "PRIMARY",
      "M",
      "MB",
      "ND",
      "MOSAIC"
    ],
    "InPlanePhaseEncodingDirectionDICOM": "COL",
    "InstitutionAddress": "Oxfordlaan_55_Maastricht_753AAF_Limburg_NL_6229_EV",
    "InstitutionName": "Scannexus",
    "InstitutionalDepartmentName": "MRI_7T",
    "MRAcquisitionType": "2D",
    "MagneticFieldStrength": 6.98,
    "Manufacturer": "Siemens",
    "ManufacturersModelName": "Investigational_Device_7T",
    "Modality": "MR",
    "MultibandAccelerationFactor": 2,
    "ParallelReductionFactorInPlane": 3,
    "PartialFourier": 0.75,
    "PatientPosition": "HFS",
    "PercentPhaseFOV": 100,
    "PhaseEncodingDirection": "j",
    "PhaseEncodingSteps": 141,
    "PhaseResolution": 1,
    "PixelBandwidth": 1400,
    "ProcedureStepDescription": "FeDem_Faruk",
    "ProtocolName": "cmrr_mbep2d_bold_AP_run10",
    "PulseSequenceDetails": "%CustomerSeq%_cmrr_mbep2d_bold",
    "ReceiveCoilName": "32Ch_Head_7T",
    "ReconMatrixPE": 188,
    "RepetitionTime": 2.6,
    "SAR": 0.0639359,
    "ScanOptions": "PFP_FS",
    "ScanningSequence": "EP",
    "SequenceName": "epfid2d1_188",
    "SequenceVariant": "SK_SS",
    "SeriesDescription": "cmrr_mbep2d_bold_AP_run10",
    "SeriesNumber": 23,
    "ShimSetting": [
      99,
      -96,
      385,
      439,
      -181,
      19,
      196,
      170
    ],
    "SliceThickness": 1.1,
    "SliceTiming": [
      0,
      0.735,
      0.0625,
      0.795,
      0.1225,
      0.855,
      0.185,
      0.9175,
      0.245,
      0.9775,
      0.305,
      1.04,
      0.3675,
      1.1,
      0.4275,
      1.1625,
      0.49,
      1.2225,
      0.55,
      1.285,
      0.6125,
      1.345,
      0.6725,
      0,
      0.735,
      0.0625,
      0.795,
      0.1225,
      0.855,
      0.185,
      0.9175,
      0.245,
      0.9775,
      0.305,
      1.04,
      0.3675,
      1.1,
      0.4275,
      1.1625,
      0.49,
      1.2225,
      0.55,
      1.285,
      0.6125,
      1.345,
      0.6725
    ],
    "SoftwareVersions": "syngo_MR_B17",
    "SpacingBetweenSlices": 1.1,
    "StationName": "MRC18930",
    "TaskName": "auditory",
    "TotalReadoutTime": 0.0511141,
    "TxRefAmp": 211,
    "dataset": "ds001942",
    "dcmmeta_affine": [
      [
        -1.0949627161026,
        0.04041874036192894,
        0.008952437900006771,
        97.66889953613281
      ],
      [
        -0.002588572446256876,
        0.16874977946281433,
        -1.0868732929229736,
        28.965768814086914
      ],
      [
        0.04130982235074043,
        1.0819178819656372,
        0.1691882312297821,
        -125.53909301757812
      ],
      [
        0.0,
        0.0,
        0.0,
        1.0
      ]
    ],
    "dcmmeta_reorient_transform": [
      [
        0.0,
        -1.0,
        0.0,
        187.0
      ],
      [
        1.0,
        0.0,
        0.0,
        0.0
      ],
      [
        0.0,
        0.0,
        1.0,
        0.0
      ],
      [
        0.0,
        0.0,
        0.0,
        1.0
      ]
    ],
    "dcmmeta_shape": [
      188,
      188,
      46,
      150
    ],
    "dcmmeta_slice_dim": 2,
    "dcmmeta_version": 0.6,
    "global": {
      "const": {
        "AcquisitionMatrix": [
          188,
          0,
          0,
          188
        ],
        "AngioFlag": "N",
        "BitsAllocated": 16,
        "BitsStored": 12,
        "Columns": 1316,
        "EchoNumbers": 1,
        "EchoTime": 20.0,
        "EchoTrainLength": 1,
        "FlipAngle": 80.0,
        "HighBit": 11,
        "ImageOrientationPatient": [
          0.9992863014427,
          0.0023623863258,
          0.03770022386964,
          0.03688700540101,
          0.15400465001157,
          -0.9873813430521
        ],
        "ImagePositionPatient": [
          -745.58233320233,
          -157.15681018518,
          663.68251557367
        ],
        "ImageType": [
          "ORIGINAL",
          "PRIMARY",
          "M",
          "MB",
          "ND",
          "MOSAIC"
        ],
        "ImagedNucleus": "1H",
        "ImagingFrequency": 297.205623,
        "InPlanePhaseEncodingDirection": "COL",
        "LargestImagePixelValue": 4095,
        "MRAcquisitionType": "2D",
        "MagneticFieldStrength": 6.98,
        "Manufacturer": "SIEMENS",
        "ManufacturerModelName": "Investigational_Device_7T",
        "Modality": "MR",
        "NumberOfAverages": 1.0,
        "NumberOfPhaseEncodingSteps": 141,
        "PercentPhaseFieldOfView": 100.0,
        "PercentSampling": 100.0,
        "PerformedProcedureStepStartTime": "172433.343000",
        "PhotometricInterpretation": "MONOCHROME2",
        "PixelBandwidth": 1400.0,
        "PixelRepresentation": 0,
        "PixelSpacing": [
          1.0957447290421,
          1.0957447290421
        ],
        "ProtocolName": "cmrr_mbep2d_bold_AP_run10",
        "RepetitionTime": 2600.0,
        "Rows": 1316,
        "SAR": 0.06393586144314,
        "SamplesPerPixel": 1,
        "ScanOptions": [
          "PFP",
          "FS"
        ],
        "ScanningSequence": "EP",
        "SequenceName": "epfid2d1_188",
        "SequenceVariant": [
          "SK",
          "SS"
        ],
        "SeriesDescription": "cmrr_mbep2d_bold_AP_run10",
        "SeriesNumber": 23,
        "SeriesTime": "190242.984000",
        "SliceLocation": -47.134106943425,
        "SliceThickness": 1.1000000238419,
        "SmallestImagePixelValue": 0,
        "SoftwareVersions": "syngo MR B17",
        "SpacingBetweenSlices": 1.0999992311947,
        "SpecificCharacterSet": "ISO_IR 100",
        "StudyID": "1",
        "StudyTime": "172433.281000",
        "TransmitCoilName": "32Ch_Head_7T",
        "VariableFlipAngleFlag": "N",
        "WindowCenterWidthExplanation": "Algo1",
        "dBdt": 0.0
      },
      "slices": {}
    },
    "modality": "bold",
    "run_id": 10,
    "session_id": "SES03",
    "subject_id": "S10",
    "task_id": "auditory",
    "time": {
      "samples": {
        "AcquisitionNumber": [
          1,
          2,
          3,
          4,
          5,
          6,
          7,
          8,
          9,
          10,
          11,
          12,
          13,
          14,
          15,
          16,
          17,
          18,
          19,
          20,
          21,
          22,
          23,
          24,
          25,
          26,
          27,
          28,
          29,
          30,
          31,
          32,
          33,
          34,
          35,
          36,
          37,
          38,
          39,
          40,
          41,
          42,
          43,
          44,
          45,
          46,
          47,
          48,
          49,
          50,
          51,
          52,
          53,
          54,
          55,
          56,
          57,
          58,
          59,
          60,
          61,
          62,
          63,
          64,
          65,
          66,
          67,
          68,
          69,
          70,
          71,
          72,
          73,
          74,
          75,
          76,
          77,
          78,
          79,
          80,
          81,
          82,
          83,
          84,
          85,
          86,
          87,
          88,
          89,
          90,
          91,
          92,
          93,
          94,
          95,
          96,
          97,
          98,
          99,
          100,
          101,
          102,
          103,
          104,
          105,
          106,
          107,
          108,
          109,
          110,
          111,
          112,
          113,
          114,
          115,
          116,
          117,
          118,
          119,
          120,
          121,
          122,
          123,
          124,
          125,
          126,
          127,
          128,
          129,
          130,
          131,
          132,
          133,
          134,
          135,
          136,
          137,
          138,
          139,
          140,
          141,
          142,
          143,
          144,
          145,
          146,
          147,
          148,
          149,
          150
        ],
        "AcquisitionTime": [
          "190233.997500",
          "190236.607500",
          "190239.220000",
          "190241.830000",
          "190244.440000",
          "190247.050000",
          "190249.660000",
          "190252.272500",
          "190254.882500",
          "190257.492500",
          "190300.102500",
          "190302.712500",
          "190305.322500",
          "190307.935000",
          "190310.545000",
          "190313.155000",
          "190315.765000",
          "190318.375000",
          "190320.985000",
          "190323.597500",
          "190326.207500",
          "190328.817500",
          "190331.427500",
          "190334.037500",
          "190336.650000",
          "190339.260000",
          "190341.870000",
          "190344.480000",
          "190347.090000",
          "190349.700000",
          "190352.312500",
          "190354.922500",
          "190357.532500",
          "190400.142500",
          "190402.752500",
          "190405.362500",
          "190407.975000",
          "190410.585000",
          "190413.195000",
          "190415.805000",
          "190418.415000",
          "190421.027500",
          "190423.637500",
          "190426.247500",
          "190428.857500",
          "190431.467500",
          "190434.077500",
          "190436.690000",
          "190439.300000",
          "190441.910000",
          "190444.520000",
          "190447.130000",
          "190449.740000",
          "190452.352500",
          "190454.962500",
          "190457.572500",
          "190500.182500",
          "190502.792500",
          "190505.405000",
          "190508.015000",
          "190510.625000",
          "190513.235000",
          "190515.845000",
          "190518.455000",
          "190521.067500",
          "190523.677500",
          "190526.287500",
          "190528.897500",
          "190531.507500",
          "190534.117500",
          "190536.730000",
          "190539.340000",
          "190541.950000",
          "190544.560000",
          "190547.170000",
          "190549.782500",
          "190552.392500",
          "190555.002500",
          "190557.612500",
          "190600.222500",
          "190602.832500",
          "190605.445000",
          "190608.055000",
          "190610.665000",
          "190613.275000",
          "190615.885000",
          "190618.495000",
          "190621.107500",
          "190623.717500",
          "190626.327500",
          "190628.937500",
          "190631.547500",
          "190634.160000",
          "190636.770000",
          "190639.380000",
          "190641.990000",
          "190644.600000",
          "190647.210000",
          "190649.822500",
          "190652.432500",
          "190655.042500",
          "190657.652500",
          "190700.262500",
          "190702.872500",
          "190705.485000",
          "190708.095000",
          "190710.705000",
          "190713.315000",
          "190715.925000",
          "190718.537500",
          "190721.147500",
          "190723.757500",
          "190726.367500",
          "190728.977500",
          "190731.587500",
          "190734.200000",
          "190736.810000",
          "190739.420000",
          "190742.030000",
          "190744.640000",
          "190747.250000",
          "190749.862500",
          "190752.472500",
          "190755.082500",
          "190757.692500",
          "190800.302500",
          "190802.915000",
          "190805.525000",
          "190808.135000",
          "190810.745000",
          "190813.355000",
          "190815.965000",
          "190818.577500",
          "190821.187500",
          "190823.797500",
          "190826.407500",
          "190829.017500",
          "190831.627500",
          "190834.240000",
          "190836.850000",
          "190839.460000",
          "190842.070000",
          "190844.680000",
          "190847.292500",
          "190849.902500",
          "190852.512500",
          "190855.122500",
          "190857.732500",
          "190900.342500",
          "190902.955000"
        ],
        "ContentTime": [
          "190242.984000",
          "190243.484000",
          "190243.968000",
          "190246.468000",
          "190248.968000",
          "190251.468000",
          "190253.968000",
          "190256.968000",
          "190259.468000",
          "190301.968000",
          "190304.468000",
          "190306.968000",
          "190309.968000",
          "190312.468000",
          "190314.968000",
          "190317.468000",
          "190319.968000",
          "190322.968000",
          "190325.468000",
          "190327.968000",
          "190330.468000",
          "190332.968000",
          "190335.968000",
          "190338.468000",
          "190340.968000",
          "190343.468000",
          "190345.968000",
          "190348.968000",
          "190351.468000",
          "190353.968000",
          "190356.468000",
          "190358.968000",
          "190401.968000",
          "190404.468000",
          "190406.968000",
          "190409.468000",
          "190411.968000",
          "190414.968000",
          "190417.468000",
          "190419.968000",
          "190422.468000",
          "190424.968000",
          "190427.968000",
          "190430.468000",
          "190432.968000",
          "190435.468000",
          "190437.968000",
          "190440.968000",
          "190443.468000",
          "190445.968000",
          "190448.468000",
          "190450.968000",
          "190453.968000",
          "190456.468000",
          "190458.968000",
          "190501.468000",
          "190503.968000",
          "190506.968000",
          "190509.468000",
          "190511.968000",
          "190514.468000",
          "190516.968000",
          "190519.968000",
          "190522.468000",
          "190524.968000",
          "190527.468000",
          "190529.968000",
          "190532.968000",
          "190535.468000",
          "190537.968000",
          "190540.468000",
          "190542.968000",
          "190545.968000",
          "190548.468000",
          "190550.968000",
          "190553.468000",
          "190555.968000",
          "190558.968000",
          "190601.468000",
          "190603.968000",
          "190606.468000",
          "190608.968000",
          "190611.968000",
          "190614.468000",
          "190616.968000",
          "190619.468000",
          "190621.968000",
          "190624.968000",
          "190627.468000",
          "190629.968000",
          "190632.468000",
          "190634.968000",
          "190637.968000",
          "190640.468000",
          "190642.968000",
          "190645.468000",
          "190647.968000",
          "190650.968000",
          "190653.468000",
          "190655.968000",
          "190658.468000",
          "190700.968000",
          "190703.968000",
          "190706.468000",
          "190708.968000",
          "190711.468000",
          "190713.968000",
          "190716.968000",
          "190719.468000",
          "190721.968000",
          "190724.468000",
          "190726.968000",
          "190729.968000",
          "190732.468000",
          "190734.968000",
          "190737.468000",
          "190739.968000",
          "190742.968000",
          "190745.468000",
          "190747.968000",
          "190750.468000",
          "190752.968000",
          "190755.968000",
          "190758.468000",
          "190800.968000",
          "190803.468000",
          "190805.968000",
          "190808.968000",
          "190811.468000",
          "190813.968000",
          "190816.468000",
          "190818.968000",
          "190821.968000",
          "190824.468000",
          "190826.968000",
          "190829.468000",
          "190831.968000",
          "190834.968000",
          "190837.468000",
          "190839.968000",
          "190842.468000",
          "190844.968000",
          "190847.968000",
          "190850.468000",
          "190852.968000",
          "190855.468000",
          "190857.968000",
          "190900.968000",
          "190903.468000",
          "190910.687000"
        ],
        "InstanceCreationTime": [
          "190242.984000",
          "190243.484000",
          "190243.968000",
          "190246.468000",
          "190248.968000",
          "190251.468000",
          "190253.968000",
          "190256.968000",
          "190259.468000",
          "190301.968000",
          "190304.468000",
          "190306.968000",
          "190309.968000",
          "190312.468000",
          "190314.968000",
          "190317.468000",
          "190319.968000",
          "190322.968000",
          "190325.468000",
          "190327.968000",
          "190330.468000",
          "190332.968000",
          "190335.968000",
          "190338.468000",
          "190340.968000",
          "190343.468000",
          "190345.968000",
          "190348.968000",
          "190351.468000",
          "190353.968000",
          "190356.468000",
          "190358.968000",
          "190401.968000",
          "190404.468000",
          "190406.968000",
          "190409.468000",
          "190411.968000",
          "190414.968000",
          "190417.468000",
          "190419.968000",
          "190422.468000",
          "190424.968000",
          "190427.968000",
          "190430.468000",
          "190432.968000",
          "190435.468000",
          "190437.968000",
          "190440.968000",
          "190443.468000",
          "190445.968000",
          "190448.468000",
          "190450.968000",
          "190453.968000",
          "190456.468000",
          "190458.968000",
          "190501.468000",
          "190503.968000",
          "190506.968000",
          "190509.468000",
          "190511.968000",
          "190514.468000",
          "190516.968000",
          "190519.968000",
          "190522.468000",
          "190524.968000",
          "190527.468000",
          "190529.968000",
          "190532.968000",
          "190535.468000",
          "190537.968000",
          "190540.468000",
          "190542.968000",
          "190545.968000",
          "190548.468000",
          "190550.968000",
          "190553.468000",
          "190555.968000",
          "190558.968000",
          "190601.468000",
          "190603.968000",
          "190606.468000",
          "190608.968000",
          "190611.968000",
          "190614.468000",
          "190616.968000",
          "190619.468000",
          "190621.968000",
          "190624.968000",
          "190627.468000",
          "190629.968000",
          "190632.468000",
          "190634.968000",
          "190637.968000",
          "190640.468000",
          "190642.968000",
          "190645.468000",
          "190647.968000",
          "190650.968000",
          "190653.468000",
          "190655.968000",
          "190658.468000",
          "190700.968000",
          "190703.968000",
          "190706.468000",
          "190708.968000",
          "190711.468000",
          "190713.968000",
          "190716.968000",
          "190719.468000",
          "190721.968000",
          "190724.468000",
          "190726.968000",
          "190729.968000",
          "190732.468000",
          "190734.968000",
          "190737.468000",
          "190739.968000",
          "190742.968000",
          "190745.468000",
          "190747.968000",
          "190750.468000",
          "190752.968000",
          "190755.968000",
          "190758.468000",
          "190800.968000",
          "190803.468000",
          "190805.968000",
          "190808.968000",
          "190811.468000",
          "190813.968000",
          "190816.468000",
          "190818.968000",
          "190821.968000",
          "190824.468000",
          "190826.968000",
          "190829.468000",
          "190831.968000",
          "190834.968000",
          "190837.468000",
          "190839.968000",
          "190842.468000",
          "190844.968000",
          "190847.968000",
          "190850.468000",
          "190852.968000",
          "190855.468000",
          "190857.968000",
          "190900.968000",
          "190903.468000",
          "190910.687000"
        ],
        "InstanceNumber": [
          1,
          2,
          3,
          4,
          5,
          6,
          7,
          8,
          9,
          10,
          11,
          12,
          13,
          14,
          15,
          16,
          17,
          18,
          19,
          20,
          21,
          22,
          23,
          24,
          25,
          26,
          27,
          28,
          29,
          30,
          31,
          32,
          33,
          34,
          35,
          36,
          37,
          38,
          39,
          40,
          41,
          42,
          43,
          44,
          45,
          46,
          47,
          48,
          49,
          50,
          51,
          52,
          53,
          54,
          55,
          56,
          57,
          58,
          59,
          60,
          61,
          62,
          63,
          64,
          65,
          66,
          67,
          68,
          69,
          70,
          71,
          72,
          73,
          74,
          75,
          76,
          77,
          78,
          79,
          80,
          81,
          82,
          83,
          84,
          85,
          86,
          87,
          88,
          89,
          90,
          91,
          92,
          93,
          94,
          95,
          96,
          97,
          98,
          99,
          100,
          101,
          102,
          103,
          104,
          105,
          106,
          107,
          108,
          109,
          110,
          111,
          112,
          113,
          114,
          115,
          116,
          117,
          118,
          119,
          120,
          121,
          122,
          123,
          124,
          125,
          126,
          127,
          128,
          129,
          130,
          131,
          132,
          133,
          134,
          135,
          136,
          137,
          138,
          139,
          140,
          141,
          142,
          143,
          144,
          145,
          146,
          147,
          148,
          149,
          150
        ],
        "WindowCenter": [
          916.0,
          914.0,
          913.0,
          913.0,
          914.0,
          913.0,
          912.0,
          913.0,
          913.0,
          912.0,
          911.0,
          912.0,
          914.0,
          913.0,
          913.0,
          912.0,
          913.0,
          914.0,
          913.0,
          912.0,
          913.0,
          912.0,
          912.0,
          914.0,
          913.0,
          912.0,
          913.0,
          915.0,
          913.0,
          912.0,
          913.0,
          913.0,
          913.0,
          912.0,
          913.0,
          913.0,
          913.0,
          913.0,
          914.0,
          914.0,
          913.0,
          913.0,
          914.0,
          914.0,
          913.0,
          913.0,
          914.0,
          914.0,
          913.0,
          913.0,
          914.0,
          916.0,
          914.0,
          913.0,
          914.0,
          915.0,
          913.0,
          913.0,
          913.0,
          915.0,
          914.0,
          913.0,
          912.0,
          914.0,
          913.0,
          913.0,
          912.0,
          913.0,
          914.0,
          914.0,
          914.0,
          914.0,
          914.0,
          915.0,
          914.0,
          913.0,
          913.0,
          914.0,
          914.0,
          913.0,
          913.0,
          913.0,
          914.0,
          914.0,
          914.0,
          913.0,
          914.0,
          914.0,
          913.0,
          914.0,
          915.0,
          913.0,
          913.0,
          915.0,
          915.0,
          913.0,
          913.0,
          914.0,
          915.0,
          914.0,
          913.0,
          914.0,
          913.0,
          914.0,
          915.0,
          913.0,
          913.0,
          915.0,
          914.0,
          913.0,
          914.0,
          915.0,
          914.0,
          914.0,
          913.0,
          913.0,
          913.0,
          913.0,
          913.0,
          912.0,
          912.0,
          914.0,
          913.0,
          914.0,
          914.0,
          914.0,
          912.0,
          912.0,
          913.0,
          912.0,
          912.0,
          912.0,
          912.0,
          912.0,
          913.0,
          912.0,
          913.0,
          913.0,
          912.0,
          912.0,
          912.0,
          912.0,
          912.0,
          911.0,
          912.0,
          914.0,
          912.0,
          911.0,
          911.0,
          913.0
        ],
        "WindowWidth": [
          2100.0,
          2094.0,
          2091.0,
          2092.0,
          2093.0,
          2092.0,
          2087.0,
          2092.0,
          2092.0,
          2088.0,
          2086.0,
          2089.0,
          2093.0,
          2092.0,
          2089.0,
          2089.0,
          2090.0,
          2092.0,
          2089.0,
          2088.0,
          2090.0,
          2088.0,
          2088.0,
          2094.0,
          2091.0,
          2086.0,
          2092.0,
          2096.0,
          2092.0,
          2088.0,
          2091.0,
          2090.0,
          2088.0,
          2087.0,
          2090.0,
          2089.0,
          2090.0,
          2090.0,
          2092.0,
          2094.0,
          2091.0,
          2092.0,
          2095.0,
          2093.0,
          2091.0,
          2091.0,
          2093.0,
          2094.0,
          2090.0,
          2090.0,
          2094.0,
          2099.0,
          2092.0,
          2089.0,
          2095.0,
          2097.0,
          2092.0,
          2090.0,
          2092.0,
          2095.0,
          2093.0,
          2090.0,
          2089.0,
          2093.0,
          2091.0,
          2091.0,
          2089.0,
          2091.0,
          2093.0,
          2093.0,
          2094.0,
          2093.0,
          2093.0,
          2097.0,
          2093.0,
          2090.0,
          2090.0,
          2095.0,
          2094.0,
          2090.0,
          2091.0,
          2092.0,
          2092.0,
          2094.0,
          2092.0,
          2091.0,
          2095.0,
          2094.0,
          2090.0,
          2094.0,
          2097.0,
          2091.0,
          2091.0,
          2097.0,
          2097.0,
          2091.0,
          2091.0,
          2094.0,
          2096.0,
          2094.0,
          2094.0,
          2094.0,
          2089.0,
          2095.0,
          2097.0,
          2091.0,
          2092.0,
          2095.0,
          2092.0,
          2089.0,
          2094.0,
          2096.0,
          2095.0,
          2094.0,
          2091.0,
          2091.0,
          2090.0,
          2091.0,
          2090.0,
          2089.0,
          2088.0,
          2093.0,
          2092.0,
          2095.0,
          2093.0,
          2093.0,
          2087.0,
          2087.0,
          2089.0,
          2088.0,
          2087.0,
          2089.0,
          2088.0,
          2087.0,
          2091.0,
          2087.0,
          2090.0,
          2090.0,
          2088.0,
          2086.0,
          2089.0,
          2088.0,
          2087.0,
          2086.0,
          2089.0,
          2094.0,
          2088.0,
          2083.0,
          2085.0,
          2092.0
        ]
      },
      "slices": {}
    }
  },
  "dummy_trs": 0,
  "dvars_nstd": 75.82595415583894,
  "dvars_std": 1.060947990939597,
  "dvars_vstd": 1.0197619813422822,
  "efc": 0.57863562380902,
  "fber": 228.90499877929688,
  "fd_mean": 0.05221843964265917,
  "fd_num": 1,
  "fd_perc": 0.6666666666666666,
  "fwhm_avg": 3.0585839382794533,
  "fwhm_x": 2.9107235613063986,
  "fwhm_y": 2.8478348262081754,
  "fwhm_z": 3.4171934273237863,
  "gcor": 0.00173517,
  "gsr_x": 0.07105714827775955,
  "gsr_y": 0.002147472696378827,
  "provenance": {
    "md5sum": "8249e76f9c42b49a9b7a1f23f8c3de1d",
    "settings": {
      "fd_thres": 0.2,
      "testing": false
    },
    "software": "mriqc",
    "version": "23.0.1",
    "webapi_port": null,
    "webapi_url": "https://mriqc.nimh.nih.gov/api/v1"
  },
  "size_t": 150,
  "size_x": 188,
  "size_y": 188,
  "size_z": 46,
  "snr": 1.8832586355837362,
  "spacing_tr": 2.5999999046325684,
  "spacing_x": 1.0957447290420532,
  "spacing_y": 1.0957447290420532,
  "spacing_z": 1.099999189376831,
  "summary_bg_k": 38.17222953418409,
  "summary_bg_mad": 35.74059732995695,
  "summary_bg_mean": 120.49976348876953,
  "summary_bg_median": 61.173336029052734,
  "summary_bg_n": 1034812.0,
  "summary_bg_p05": 32.4466667175293,
  "summary_bg_p95": 376.6926773071283,
