{
  "aor": 0.0007017999999999999,
  "aqi": 0.011029689333333334,
  "bids_meta": {
    "AcquisitionMatrixPE": 188,
    "AcquisitionNumber": 1,
    "AcquisitionTime": "18:47:22.655000",
    "BandwidthPerPixelPhaseEncode": 19.46,
    "BaseResolution": 188,
    "ConversionSoftware": "dcm2niix",
    "ConversionSoftwareVersion": "v1.0.20180606 GCC4.8.5",
    "DelayTime": 1.2,
    "DerivedVendorReportedEchoSpacing": 0.000820013,
    "DeviceSerialNumber": "18930",
    "DwellTime": 1.9e-06,
    "EchoTime": 0.02,
    "EffectiveEchoSpacing": 0.000273338,
    "FlipAngle": 80,
    "ImageComments": "Unaliased_MB2_PE2",
    "ImageOrientationPatientDICOM": [
      0.999286,
      0.00236239,
      0.0377002,
      0.036887,
      0.154005,
      -0.987381
    ],
    "ImageType": [
      "ORIGINAL",
      "PRIMARY",
      "M",
      "MB",
      "ND",
      "MOSAIC"
    ],
    "InPlanePhaseEncodingDirectionDICOM": "COL",
    "InstitutionAddress": "Oxfordlaan_55_Maastricht_753AAF_Limburg_NL_6229_EV",
    "InstitutionName": "Scannexus",
    "InstitutionalDepartmentName": "MRI_7T",
    "MRAcquisitionType": "2D",
    "MagneticFieldStrength": 6.98,
    "Manufacturer": "Siemens",
    "ManufacturersModelName": "Investigational_Device_7T",
    "Modality": "MR",
    "MultibandAccelerationFactor": 2,
    "ParallelReductionFactorInPlane": 3,
    "PartialFourier": 0.75,
    "PatientPosition": "HFS",
    "PercentPhaseFOV": 100,
    "PhaseEncodingDirection": "j",
    "PhaseEncodingSteps": 141,
    "PhaseResolution": 1,
    "PixelBandwidth": 1400,
    "ProcedureStepDescription": "FeDem_Faruk",
    "ProtocolName": "cmrr_mbep2d_bold_AP_run8",
    "PulseSequenceDetails": "%CustomerSeq%_cmrr_mbep2d_bold",
    "ReceiveCoilName": "32Ch_Head_7T",
    "ReconMatrixPE": 188,
    "RepetitionTime": 2.6,
    "SAR": 0.0635876,
    "ScanOptions": "PFP_FS",
    "ScanningSequence": "EP",
    "SequenceName": "epfid2d1_188",
    "SequenceVariant": "SK_SS",
    "SeriesDescription": "cmrr_mbep2d_bold_AP_run8",
    "SeriesNumber": 21,
    "ShimSetting": [
      99,
      -96,
      385,
      439,
      -181,
      19,
      196,
      170
    ],
    "SliceThickness": 1.1,
    "SliceTiming": [
      0,
      0.7325,
      0.0625,
      0.795,
      0.1225,
      0.855,
      0.1825,
      0.9175,
      0.245,
      0.9775,
      0.305,
      1.04,
      0.3675,
      1.1,
      0.4275,
      1.1625,
      0.49,
      1.2225,
      0.55,
      1.2825,
      0.6125,
      1.345,
      0.6725,
      0,
      0.7325,
      0.0625,
      0.795,
      0.1225,
      0.855,
      0.1825,
      0.9175,
      0.245,
      0.9775,
      0.305,
      1.04,
      0.3675,
      1.1,
      0.4275,
      1.1625,
      0.49,
      1.2225,
      0.55,
      1.2825,
      0.6125,
      1.345,
      0.6725
    ],
    "SoftwareVersions": "syngo_MR_B17",
    "SpacingBetweenSlices": 1.1,
    "StationName": "MRC18930",
    "TaskName": "auditory",
    "TotalReadoutTime": 0.0511141,
    "TxRefAmp": 211,
    "dataset": "ds001942",
    "dcmmeta_affine": [
      [
        -1.0949627161026,
        0.04041874036192894,
        0.008952437900006771,
        97.66889953613281
      ],
      [
        -0.002588572446256876,
        0.16874977946281433,
        -1.0868732929229736,
        28.965768814086914
      ],
      [
        0.04130982235074043,
        1.0819178819656372,
        0.1691882312297821,
        -125.53909301757812
      ],
      [
        0.0,
        0.0,
        0.0,
        1.0
      ]
    ],
    "dcmmeta_reorient_transform": [
      [
        0.0,
        -1.0,
        0.0,
        187.0
      ],
      [
        1.0,
        0.0,
        0.0,
        0.0
      ],
      [
        0.0,
        0.0,
        1.0,
        0.0
      ],
      [
        0.0,
        0.0,
        0.0,
        1.0
      ]
    ],
    "dcmmeta_shape": [
      188,
      188,
      46,
      150
    ],
    "dcmmeta_slice_dim": 2,
    "dcmmeta_version": 0.6,
    "global": {
      "const": {
        "AcquisitionMatrix": [
          188,
          0,
          0,
          188
        ],
        "AngioFlag": "N",
        "BitsAllocated": 16,
        "BitsStored": 12,
        "Columns": 1316,
        "EchoNumbers": 1,
        "EchoTime": 20.0,
        "EchoTrainLength": 1,
        "FlipAngle": 80.0,
        "HighBit": 11,
        "ImageOrientationPatient": [
          0.9992863014427,
          0.0023623863258,
          0.03770022386964,
          0.03688700540101,
          0.15400465001157,
          -0.9873813430521
        ],
        "ImagePositionPatient": [
          -745.58233320233,
          -157.15681018518,
          663.68251557367
        ],
        "ImageType": [
          "ORIGINAL",
          "PRIMARY",
          "M",
          "MB",
          "ND",
          "MOSAIC"
        ],
        "ImagedNucleus": "1H",
        "ImagingFrequency": 297.205621,
        "InPlanePhaseEncodingDirection": "COL",
        "LargestImagePixelValue": 4095,
        "MRAcquisitionType": "2D",
        "MagneticFieldStrength": 6.98,
        "Manufacturer": "SIEMENS",
        "ManufacturerModelName": "Investigational_Device_7T",
        "Modality": "MR",
        "NumberOfAverages": 1.0,
        "NumberOfPhaseEncodingSteps": 141,
        "PercentPhaseFieldOfView": 100.0,
        "PercentSampling": 100.0,
        "PerformedProcedureStepStartTime": "172433.343000",
        "PhotometricInterpretation": "MONOCHROME2",
        "PixelBandwidth": 1400.0,
        "PixelRepresentation": 0,
        "PixelSpacing": [
          1.0957447290421,
          1.0957447290421
        ],
        "ProtocolName": "cmrr_mbep2d_bold_AP_run8",
        "RepetitionTime": 2600.0,
        "Rows": 1316,
        "SAR": 0.06358759467656,
        "SamplesPerPixel": 1,
        "ScanOptions": [
          "PFP",
          "FS"
        ],
        "ScanningSequence": "EP",
        "SequenceName": "epfid2d1_188",
        "SequenceVariant": [
          "SK",
          "SS"
        ],
        "SeriesDescription": "cmrr_mbep2d_bold_AP_run8",
        "SeriesNumber": 21,
        "SeriesTime": "184731.890000",
        "SliceLocation": -47.134106943425,
        "SliceThickness": 1.1000000238419,
        "SmallestImagePixelValue": 0,
        "SoftwareVersions": "syngo MR B17",
        "SpacingBetweenSlices": 1.0999992311947,
        "SpecificCharacterSet": "ISO_IR 100",
        "StudyID": "1",
        "StudyTime": "172433.281000",
        "TransmitCoilName": "32Ch_Head_7T",
        "VariableFlipAngleFlag": "N",
        "WindowCenterWidthExplanation": "Algo1",
        "dBdt": 0.0
      },
      "slices": {}
    },
    "modality": "bold",
    "run_id": 8,
    "session_id": "SES03",
    "subject_id": "S10",
    "task_id": "auditory",
    "time": {
      "samples": {
        "AcquisitionNumber": [
          1,
          2,
          3,
          4,
          5,
          6,
          7,
          8,
          9,
          10,
          11,
          12,
          13,
          14,
          15,
          16,
          17,
          18,
          19,
          20,
          21,
          22,
          23,
          24,
          25,
          26,
          27,
          28,
          29,
          30,
          31,
          32,
          33,
          34,
          35,
          36,
          37,
          38,
          39,
          40,
          41,
          42,
          43,
          44,
          45,
          46,
          47,
          48,
          49,
          50,
          51,
          52,
          53,
          54,
          55,
          56,
          57,
          58,
          59,
          60,
          61,
          62,
          63,
          64,
          65,
          66,
          67,
          68,
          69,
          70,
          71,
          72,
          73,
          74,
          75,
          76,
          77,
          78,
          79,
          80,
          81,
          82,
          83,
          84,
          85,
          86,
          87,
          88,
          89,
          90,
          91,
          92,
          93,
          94,
          95,
          96,
          97,
          98,
          99,
          100,
          101,
          102,
          103,
          104,
          105,
          106,
          107,
          108,
          109,
          110,
          111,
          112,
          113,
          114,
          115,
          116,
          117,
          118,
          119,
          120,
          121,
          122,
          123,
          124,
          125,
          126,
          127,
          128,
          129,
          130,
          131,
          132,
          133,
          134,
          135,
          136,
          137,
          138,
          139,
          140,
          141,
          142,
          143,
          144,
          145,
          146,
          147,
          148,
          149,
          150
        ],
        "AcquisitionTime": [
          "184722.655000",
          "184725.265000",
          "184727.877500",
          "184730.487500",
          "184733.097500",
          "184735.707500",
          "184738.317500",
          "184740.927500",
          "184743.540000",
          "184746.150000",
          "184748.760000",
          "184751.370000",
          "184753.980000",
          "184756.590000",
          "184759.202500",
          "184801.812500",
          "184804.422500",
          "184807.032500",
          "184809.642500",
          "184812.255000",
          "184814.865000",
          "184817.475000",
          "184820.085000",
          "184822.695000",
          "184825.305000",
          "184827.917500",
          "184830.527500",
          "184833.137500",
          "184835.747500",
          "184838.357500",
          "184840.967500",
          "184843.580000",
          "184846.190000",
          "184848.800000",
          "184851.410000",
          "184854.020000",
          "184856.632500",
          "184859.242500",
          "184901.852500",
          "184904.462500",
          "184907.072500",
          "184909.682500",
          "184912.295000",
          "184914.905000",
          "184917.515000",
          "184920.125000",
          "184922.735000",
          "184925.345000",
          "184927.957500",
          "184930.567500",
          "184933.177500",
          "184935.787500",
          "184938.397500",
          "184941.010000",
          "184943.620000",
          "184946.230000",
          "184948.840000",
          "184951.450000",
          "184954.060000",
          "184956.672500",
          "184959.282500",
          "185001.892500",
          "185004.502500",
          "185007.112500",
          "185009.722500",
          "185012.335000",
          "185014.945000",
          "185017.555000",
          "185020.165000",
          "185022.775000",
          "185025.387500",
          "185027.997500",
          "185030.607500",
          "185033.217500",
          "185035.827500",
          "185038.437500",
          "185041.050000",
          "185043.660000",
          "185046.270000",
          "185048.880000",
          "185051.490000",
          "185054.100000",
          "185056.712500",
          "185059.322500",
          "185101.932500",
          "185104.542500",
          "185107.152500",
          "185109.765000",
          "185112.375000",
          "185114.985000",
          "185117.595000",
          "185120.205000",
          "185122.815000",
          "185125.427500",
          "185128.037500",
          "185130.647500",
          "185133.257500",
          "185135.867500",
          "185138.477500",
          "185141.090000",
          "185143.700000",
          "185146.310000",
          "185148.920000",
          "185151.530000",
          "185154.142500",
          "185156.752500",
          "185159.362500",
          "185201.972500",
          "185204.582500",
          "185207.192500",
          "185209.805000",
          "185212.415000",
          "185215.025000",
          "185217.635000",
          "185220.245000",
          "185222.855000",
          "185225.467500",
          "185228.077500",
          "185230.687500",
          "185233.297500",
          "185235.907500",
          "185238.520000",
          "185241.130000",
          "185243.740000",
          "185246.350000",
          "185248.960000",
          "185251.570000",
          "185254.182500",
          "185256.792500",
          "185259.402500",
          "185302.012500",
          "185304.622500",
          "185307.232500",
          "185309.845000",
          "185312.455000",
          "185315.065000",
          "185317.675000",
          "185320.285000",
          "185322.897500",
          "185325.507500",
          "185328.117500",
          "185330.727500",
          "185333.337500",
          "185335.947500",
          "185338.560000",
          "185341.170000",
          "185343.780000",
          "185346.390000",
          "185349.000000",
          "185351.610000"
        ],
        "ContentTime": [
          "184731.906000",
          "184732.390000",
          "184732.890000",
          "184735.390000",
          "184737.890000",
          "184740.390000",
          "184743.390000",
          "184745.890000",
          "184748.390000",
          "184750.890000",
          "184753.390000",
          "184756.390000",
          "184758.890000",
          "184801.390000",
          "184803.890000",
          "184806.390000",
          "184809.390000",
          "184811.890000",
          "184814.390000",
          "184816.890000",
          "184819.390000",
          "184822.390000",
          "184824.890000",
          "184827.390000",
          "184829.890000",
          "184832.390000",
          "184835.390000",
          "184837.890000",
          "184840.390000",
          "184842.890000",
          "184845.390000",
          "184848.390000",
          "184850.890000",
          "184853.390000",
          "184855.890000",
          "184858.390000",
          "184901.390000",
          "184903.890000",
          "184906.390000",
          "184908.890000",
          "184911.390000",
          "184914.390000",
          "184916.890000",
          "184919.390000",
          "184921.890000",
          "184924.390000",
          "184927.390000",
          "184929.890000",
          "184932.390000",
          "184934.890000",
          "184937.390000",
          "184940.390000",
          "184942.890000",
          "184945.390000",
          "184947.890000",
          "184950.390000",
          "184953.390000",
          "184955.890000",
          "184958.390000",
          "185000.890000",
          "185003.390000",
          "185006.390000",
          "185008.890000",
          "185011.390000",
          "185013.890000",
          "185016.390000",
          "185019.390000",
          "185021.890000",
          "185024.390000",
          "185026.890000",
          "185029.390000",
          "185032.390000",
          "185034.890000",
          "185037.390000",
          "185039.890000",
          "185042.390000",
          "185045.390000",
          "185047.890000",
          "185050.390000",
          "185052.890000",
          "185055.390000",
          "185058.390000",
          "185100.890000",
          "185103.390000",
          "185105.890000",
          "185108.390000",
          "185111.390000",
          "185113.890000",
          "185116.390000",
          "185118.890000",
          "185121.390000",
          "185124.390000",
          "185126.890000",
          "185129.390000",
          "185131.890000",
          "185134.390000",
          "185137.390000",
          "185139.890000",
          "185142.390000",
          "185144.890000",
          "185147.390000",
          "185150.390000",
          "185152.890000",
          "185155.390000",
          "185157.890000",
          "185200.390000",
          "185203.390000",
          "185205.890000",
          "185208.390000",
          "185210.890000",
          "185213.390000",
          "185216.390000",
          "185218.890000",
          "185221.390000",
          "185223.890000",
          "185226.390000",
          "185229.390000",
          "185231.890000",
          "185234.390000",
          "185236.890000",
          "185239.390000",
          "185242.390000",
          "185244.890000",
          "185247.390000",
          "185249.890000",
          "185252.390000",
          "185255.390000",
          "185257.890000",
          "185300.390000",
          "185302.890000",
          "185305.390000",
          "185308.390000",
          "185310.890000",
          "185313.390000",
          "185315.890000",
          "185318.390000",
          "185321.390000",
          "185323.890000",
          "185326.390000",
          "185328.890000",
          "185331.390000",
          "185334.390000",
          "185336.890000",
          "185339.390000",
          "185341.890000",
          "185344.390000",
          "185347.390000",
          "185349.890000",
          "185352.390000",
          "185359.734000"
        ],
        "InstanceCreationTime": [
          "184731.906000",
          "184732.390000",
          "184732.890000",
          "184735.390000",
          "184737.890000",
          "184740.390000",
          "184743.390000",
          "184745.890000",
          "184748.390000",
          "184750.890000",
          "184753.390000",
          "184756.390000",
          "184758.890000",
          "184801.390000",
          "184803.890000",
          "184806.390000",
          "184809.390000",
          "184811.890000",
          "184814.390000",
          "184816.890000",
          "184819.390000",
          "184822.390000",
          "184824.890000",
          "184827.390000",
          "184829.890000",
          "184832.390000",
          "184835.390000",
          "184837.890000",
          "184840.390000",
          "184842.890000",
          "184845.390000",
          "184848.390000",
          "184850.890000",
          "184853.390000",
          "184855.890000",
          "184858.390000",
          "184901.390000",
          "184903.890000",
          "184906.390000",
          "184908.890000",
          "184911.390000",
          "184914.390000",
          "184916.890000",
          "184919.390000",
          "184921.890000",
          "184924.390000",
          "184927.390000",
          "184929.890000",
          "184932.390000",
          "184934.890000",
          "184937.390000",
          "184940.390000",
          "184942.890000",
          "184945.390000",
          "184947.890000",
          "184950.390000",
          "184953.390000",
          "184955.890000",
          "184958.390000",
          "185000.890000",
          "185003.390000",
          "185006.390000",
          "185008.890000",
          "185011.390000",
          "185013.890000",
          "185016.390000",
          "185019.390000",
          "185021.890000",
          "185024.390000",
          "185026.890000",
          "185029.390000",
          "185032.390000",
          "185034.890000",
          "185037.390000",
          "185039.890000",
          "185042.390000",
          "185045.390000",
          "185047.890000",
          "185050.390000",
          "185052.890000",
          "185055.390000",
          "185058.390000",
          "185100.890000",
          "185103.390000",
          "185105.890000",
          "185108.390000",
          "185111.390000",
          "185113.890000",
          "185116.390000",
          "185118.890000",
          "185121.390000",
          "185124.390000",
          "185126.890000",
          "185129.390000",
          "185131.890000",
          "185134.390000",
          "185137.390000",
          "185139.890000",
          "185142.390000",
          "185144.890000",
          "185147.390000",
          "185150.390000",
          "185152.890000",
          "185155.390000",
          "185157.890000",
          "185200.390000",
          "185203.390000",
          "185205.890000",
          "185208.390000",
          "185210.890000",
          "185213.390000",
          "185216.390000",
          "185218.890000",
          "185221.390000",
          "185223.890000",
          "185226.390000",
          "185229.390000",
          "185231.890000",
          "185234.390000",
          "185236.890000",
          "185239.390000",
          "185242.390000",
          "185244.890000",
          "185247.390000",
          "185249.890000",
          "185252.390000",
          "185255.390000",
          "185257.890000",
          "185300.390000",
          "185302.890000",
          "185305.390000",
          "185308.390000",
          "185310.890000",
          "185313.390000",
          "185315.890000",
          "185318.390000",
          "185321.390000",
          "185323.890000",
          "185326.390000",
          "185328.890000",
          "185331.390000",
          "185334.390000",
          "185336.890000",
          "185339.390000",
          "185341.890000",
          "185344.390000",
          "185347.390000",
          "185349.890000",
          "185352.390000",
          "185359.734000"
        ],
        "InstanceNumber": [
          1,
          2,
          3,
          4,
          5,
          6,
          7,
          8,
          9,
          10,
          11,
          12,
          13,
          14,
          15,
          16,
          17,
          18,
          19,
          20,
          21,
          22,
          23,
          24,
          25,
          26,
          27,
          28,
          29,
          30,
          31,
          32,
          33,
          34,
          35,
          36,
          37,
          38,
          39,
          40,
          41,
          42,
          43,
          44,
          45,
          46,
          47,
          48,
          49,
          50,
          51,
          52,
          53,
          54,
          55,
          56,
          57,
          58,
          59,
          60,
          61,
          62,
          63,
          64,
          65,
          66,
          67,
          68,
          69,
          70,
          71,
          72,
          73,
          74,
          75,
          76,
          77,
          78,
          79,
          80,
          81,
          82,
          83,
          84,
          85,
          86,
          87,
          88,
          89,
          90,
          91,
          92,
          93,
          94,
          95,
          96,
          97,
          98,
          99,
          100,
          101,
          102,
          103,
          104,
          105,
          106,
          107,
          108,
          109,
          110,
          111,
          112,
          113,
          114,
          115,
          116,
          117,
          118,
          119,
          120,
          121,
          122,
          123,
          124,
          125,
          126,
          127,
          128,
          129,
          130,
          131,
          132,
          133,
          134,
          135,
          136,
          137,
          138,
          139,
          140,
          141,
          142,
          143,
          144,
          145,
          146,
          147,
          148,
          149,
          150
        ],
        "WindowCenter": [
          914.0,
          912.0,
          912.0,
          911.0,
          910.0,
          912.0,
          911.0,
          910.0,
          911.0,
          913.0,
          910.0,
          910.0,
          911.0,
          911.0,
          910.0,
          910.0,
          911.0,
          911.0,
          910.0,
          911.0,
          910.0,
          911.0,
          911.0,
          911.0,
          911.0,
          911.0,
          911.0,
          911.0,
          911.0,
          913.0,
          911.0,
          909.0,
          909.0,
          912.0,
          911.0,
          910.0,
          911.0,
          913.0,
          913.0,
          911.0,
          911.0,
          912.0,
          912.0,
          911.0,
          911.0,
          911.0,
          910.0,
          911.0,
          914.0,
          913.0,
          910.0,
          911.0,
          912.0,
          911.0,
          910.0,
          911.0,
          911.0,
          912.0,
          910.0,
          910.0,
          911.0,
          911.0,
          910.0,
          912.0,
          913.0,
          912.0,
          912.0,
          912.0,
          912.0,
          912.0,
          913.0,
          912.0,
          912.0,
          912.0,
          911.0,
          911.0,
          912.0,
          913.0,
          911.0,
          910.0,
          911.0,
          912.0,
          911.0,
          910.0,
          911.0,
          913.0,
          912.0,
          911.0,
          912.0,
          913.0,
          912.0,
          912.0,
          911.0,
          912.0,
          913.0,
          910.0,
          911.0,
          914.0,
          912.0,
          910.0,
          910.0,
          913.0,
          912.0,
          911.0,
          911.0,
          913.0,
          913.0,
          911.0,
          911.0,
          913.0,
          913.0,
          911.0,
          911.0,
          912.0,
          914.0,
          912.0,
          911.0,
          912.0,
          914.0,
          913.0,
          912.0,
          913.0,
          914.0,
          913.0,
          912.0,
          911.0,
          912.0,
          912.0,
          911.0,
          911.0,
          913.0,
          913.0,
          913.0,
          913.0,
          914.0,
          913.0,
          912.0,
          912.0,
          913.0,
          913.0,
          913.0,
          913.0,
          913.0,
          912.0,
          912.0,
          913.0,
          911.0,
          910.0,
          912.0,
          913.0
        ],
        "WindowWidth": [
          2093.0,
          2087.0,
          2088.0,
          2084.0,
          2083.0,
          2086.0,
          2086.0,
          2081.0,
          2085.0,
          2089.0,
          2082.0,
          2082.0,
          2085.0,
          2085.0,
          2082.0,
          2082.0,
          2085.0,
          2084.0,
          2084.0,
          2085.0,
          2083.0,
          2084.0,
          2084.0,
          2087.0,
          2085.0,
          2086.0,
          2086.0,
          2086.0,
          2087.0,
          2091.0,
          2085.0,
          2078.0,
          2080.0,
          2088.0,
          2085.0,
          2083.0,
          2085.0,
          2091.0,
          2091.0,
          2086.0,
          2085.0,
          2088.0,
          2088.0,
          2086.0,
          2085.0,
          2084.0,
          2083.0,
          2085.0,
          2094.0,
          2091.0,
          2082.0,
          2085.0,
          2088.0,
          2084.0,
          2083.0,
          2084.0,
          2086.0,
          2087.0,
          2082.0,
          2081.0,
          2086.0,
          2085.0,
          2083.0,
          2088.0,
          2092.0,
          2087.0,
          2088.0,
          2089.0,
          2089.0,
          2090.0,
          2090.0,
          2089.0,
          2088.0,
          2088.0,
          2085.0,
          2087.0,
          2091.0,
          2092.0,
          2084.0,
          2083.0,
          2085.0,
          2089.0,
          2085.0,
          2084.0,
          2085.0,
          2090.0,
          2087.0,
          2086.0,
          2088.0,
          2092.0,
          2088.0,
          2087.0,
          2086.0,
          2090.0,
          2090.0,
          2083.0,
          2084.0,
          2093.0,
          2088.0,
          2081.0,
          2083.0,
          2092.0,
          2088.0,
          2083.0,
          2086.0,
          2092.0,
          2089.0,
          2084.0,
          2086.0,
          2091.0,
          2091.0,
          2085.0,
          2085.0,
          2089.0,
          2094.0,
          2087.0,
          2083.0,
          2088.0,
          2093.0,
          2089.0,
          2087.0,
          2090.0,
          2093.0,
          2092.0,
          2087.0,
          2084.0,
          2087.0,
          2087.0,
          2085.0,
          2086.0,
          2089.0,
          2091.0,
          2089.0,
          2090.0,
          2093.0,
          2091.0,
          2087.0,
          2087.0,
          2091.0,
          2091.0,
          2092.0,
          2092.0,
          2091.0,
          2087.0,
          2089.0,
          2092.0,
          2085.0,
          2082.0,
          2088.0,
          2090.0
        ]
      },
      "slices": {}
    }
  },
  "dummy_trs": 0,
  "dvars_nstd": 75.49497084691274,
  "dvars_std": 1.0639069032885906,
  "dvars_vstd": 1.0221743710067117,
  "efc": 0.5784593285044926,
  "fber": 231.36801147460938,
  "fd_mean": 0.046509925042283774,
  "fd_num": 0,
  "fd_perc": 0.0,
  "fwhm_avg": 3.053461459395882,
  "fwhm_x": 2.90564938677228,
  "fwhm_y": 2.8448779331343363,
  "fwhm_z": 3.4098570582810313,
  "gcor": 0.00206763,
  "gsr_x": 0.06851863116025925,
  "gsr_y": 0.003994465805590153,
  "provenance": {
    "md5sum": "e4d335b98498291fbe992a24a51de76d",
    "settings": {
      "fd_thres": 0.2,
      "testing": false
    },
    "software": "mriqc",
    "version": "23.0.1",
    "webapi_port": null,
    "webapi_url": "https://mriqc.nimh.nih.gov/api/v1"
  },
  "size_t": 150,
  "size_x": 188,
  "size_y": 188,
  "size_z": 46,
  "snr": 1.8881910862344087,
  "spacing_tr": 2.5999999046325684,
  "spacing_x": 1.0957447290420532,
  "spacing_y": 1.0957447290420532,
  "spacing_z": 1.099999189376831,
  "summary_bg_k": 37.74369403954013,
  "summary_bg_mad": 35.65164481648093,
  "summary_bg_mean": 119.32868957519531,
  "summary_bg_median": 60.82666778564453,
  "summary_bg_n": 1034804.0,
  "summary_bg_p05": 32.29433460235597,
  "summary_bg_p95": 373.6933288574219,
