{
  "aor": 0.0006222147651006711,
  "aqi": 0.012912391946308725,
  "bids_meta": {
    "AcquisitionMatrixPE": 188,
    "AcquisitionNumber": 1,
    "AcquisitionTime": "12:30:4.262500",
    "BandwidthPerPixelPhaseEncode": 19.46,
    "BaseResolution": 188,
    "ConversionSoftware": "dcm2niix",
    "ConversionSoftwareVersion": "v1.0.20180606 GCC4.8.5",
    "DelayTime": 1.2,
    "DerivedVendorReportedEchoSpacing": 0.000820013,
    "DeviceSerialNumber": "18930",
    "DwellTime": 1.9e-06,
    "EchoTime": 0.02,
    "EffectiveEchoSpacing": 0.000273338,
    "FlipAngle": 80,
    "ImageComments": "Unaliased_MB2_PE2",
    "ImageOrientationPatientDICOM": [
      0.997181,
      0.0711839,
      -0.0237294,
      -0.0291347,
      0.0758841,
      -0.996691
    ],
    "ImageType": [
      "ORIGINAL",
      "PRIMARY",
      "M",
      "MB",
      "ND",
      "MOSAIC"
    ],
    "InPlanePhaseEncodingDirectionDICOM": "COL",
    "InstitutionAddress": "Oxfordlaan_55_Maastricht_753AAF_Limburg_NL_6229_EV",
    "InstitutionName": "Scannexus",
    "InstitutionalDepartmentName": "MRI_7T",
    "MRAcquisitionType": "2D",
    "MagneticFieldStrength": 6.98,
    "Manufacturer": "Siemens",
    "ManufacturersModelName": "Investigational_Device_7T",
    "Modality": "MR",
    "MultibandAccelerationFactor": 2,
    "ParallelReductionFactorInPlane": 3,
    "PartialFourier": 0.75,
    "PatientPosition": "HFS",
    "PercentPhaseFOV": 100,
    "PhaseEncodingDirection": "j",
    "PhaseEncodingSteps": 141,
    "PhaseResolution": 1,
    "PixelBandwidth": 1400,
    "ProcedureStepDescription": "FeDem_Faruk",
    "ProtocolName": "cmrr_mbep2d_bold_AP_run1",
    "PulseSequenceDetails": "%CustomerSeq%_cmrr_mbep2d_bold",
    "ReceiveCoilName": "32Ch_Head_7T",
    "ReconMatrixPE": 188,
    "RepetitionTime": 2.6,
    "SAR": 0.0977969,
    "ScanOptions": "PFP_FS",
    "ScanningSequence": "EP",
    "SequenceName": "epfid2d1_188",
    "SequenceVariant": "SK_SS",
    "SeriesDescription": "cmrr_mbep2d_bold_AP_run1",
    "SeriesNumber": 16,
    "ShimSetting": [
      124,
      -13,
      480,
      316,
      30,
      25,
      -149,
      154
    ],
    "SliceThickness": 1.1,
    "SliceTiming": [
      0,
      0.7325,
      0.06,
      0.7925,
      0.1225,
      0.855,
      0.1825,
      0.915,
      0.2425,
      0.9775,
      0.305,
      1.0375,
      0.365,
      1.1,
      0.4275,
      1.16,
      0.4875,
      1.22,
      0.55,
      1.2825,
      0.61,
      1.3425,
      0.6725,
      0,
      0.7325,
      0.06,
      0.7925,
      0.1225,
      0.855,
      0.1825,
      0.915,
      0.2425,
      0.9775,
      0.305,
      1.0375,
      0.365,
      1.1,
      0.4275,
      1.16,
      0.4875,
      1.22,
      0.55,
      1.2825,
      0.61,
      1.3425,
      0.6725
    ],
    "SoftwareVersions": "syngo_MR_B17",
    "SpacingBetweenSlices": 1.1,
    "StationName": "MRC18930",
    "TaskName": "auditory",
    "TotalReadoutTime": 0.0511141,
    "TxRefAmp": 240,
    "dataset": "ds001942",
    "dcmmeta_affine": [
      [
        -1.0926557779312134,
        -0.03192422166466713,
        0.07606232911348343,
        100.94556427001953
      ],
      [
        -0.07799933105707169,
        0.08314957469701767,
        -1.0940289497375488,
        45.8215217590332
      ],
      [
        -0.026001356542110443,
        1.0921188592910767,
        0.08551841974258423,
        -111.3921890258789
      ],
      [
        0.0,
        0.0,
        0.0,
        1.0
      ]
    ],
    "dcmmeta_reorient_transform": [
      [
        0.0,
        -1.0,
        0.0,
        187.0
      ],
      [
        1.0,
        0.0,
        0.0,
        0.0
      ],
      [
        0.0,
        0.0,
        1.0,
        0.0
      ],
      [
        0.0,
        0.0,
        0.0,
        1.0
      ]
    ],
    "dcmmeta_shape": [
      188,
      188,
      46,
      150
    ],
    "dcmmeta_slice_dim": 2,
    "dcmmeta_version": 0.6,
    "global": {
      "const": {
        "AcquisitionMatrix": [
          188,
          0,
          0,
          188
        ],
        "AngioFlag": "N",
        "BitsAllocated": 16,
        "BitsStored": 12,
        "Columns": 1316,
        "EchoNumbers": 1,
        "EchoTime": 20.0,
        "EchoTrainLength": 1,
        "FlipAngle": 80.0,
        "HighBit": 11,
        "ImageOrientationPatient": [
          0.99718091373392,
          0.07118385490261,
          -0.0237293928702,
          -0.0291347245826,
          0.07588407592936,
          -0.9966909123915
        ],
        "ImagePositionPatient": [
          -693.22830466268,
          -152.25847882604,
          723.45380250763
        ],
        "ImageType": [
          "ORIGINAL",
          "PRIMARY",
          "M",
          "MB",
          "ND",
          "MOSAIC"
        ],
        "ImagedNucleus": "1H",
        "ImagingFrequency": 297.205583,
        "InPlanePhaseEncodingDirection": "COL",
        "LargestImagePixelValue": 4095,
        "MRAcquisitionType": "2D",
        "MagneticFieldStrength": 6.98,
        "Manufacturer": "SIEMENS",
        "ManufacturerModelName": "Investigational_Device_7T",
        "Modality": "MR",
        "NumberOfAverages": 1.0,
        "NumberOfPhaseEncodingSteps": 141,
        "PercentPhaseFieldOfView": 100.0,
        "PercentSampling": 100.0,
        "PerformedProcedureStepStartTime": "115418.265000",
        "PhotometricInterpretation": "MONOCHROME2",
        "PixelBandwidth": 1400.0,
        "PixelRepresentation": 0,
        "PixelSpacing": [
          1.0957447290421,
          1.0957447290421
        ],
        "ProtocolName": "cmrr_mbep2d_bold_AP_run1",
        "RepetitionTime": 2600.0,
        "Rows": 1316,
        "SAR": 0.0977968566082,
        "SamplesPerPixel": 1,
        "ScanOptions": [
          "PFP",
          "FS"
        ],
        "ScanningSequence": "EP",
        "SequenceName": "epfid2d1_188",
        "SequenceVariant": [
          "SK",
          "SS"
        ],
        "SeriesDescription": "cmrr_mbep2d_bold_AP_run1",
        "SeriesNumber": 16,
        "SeriesTime": "123013.687000",
        "SliceLocation": -47.252764297263,
        "SliceThickness": 1.1000000238419,
        "SmallestImagePixelValue": 0,
        "SoftwareVersions": "syngo MR B17",
        "SpacingBetweenSlices": 1.099999210794,
        "SpecificCharacterSet": "ISO_IR 100",
        "StudyID": "1",
        "StudyTime": "115418.140000",
        "TransmitCoilName": "32Ch_Head_7T",
        "VariableFlipAngleFlag": "N",
        "WindowCenterWidthExplanation": "Algo1",
        "dBdt": 0.0
      },
      "slices": {}
    },
    "modality": "bold",
    "run_id": 1,
    "session_id": "SES02",
    "subject_id": "S11",
    "task_id": "auditory",
    "time": {
      "samples": {
        "AcquisitionNumber": [
          1,
          2,
          3,
          4,
          5,
          6,
          7,
          8,
          9,
          10,
          11,
          12,
          13,
          14,
          15,
          16,
          17,
          18,
          19,
          20,
          21,
          22,
          23,
          24,
          25,
          26,
          27,
          28,
          29,
          30,
          31,
          32,
          33,
          34,
          35,
          36,
          37,
          38,
          39,
          40,
          41,
          42,
          43,
          44,
          45,
          46,
          47,
          48,
          49,
          50,
          51,
          52,
          53,
          54,
          55,
          56,
          57,
          58,
          59,
          60,
          61,
          62,
          63,
          64,
          65,
          66,
          67,
          68,
          69,
          70,
          71,
          72,
          73,
          74,
          75,
          76,
          77,
          78,
          79,
          80,
          81,
          82,
          83,
          84,
          85,
          86,
          87,
          88,
          89,
          90,
          91,
          92,
          93,
          94,
          95,
          96,
          97,
          98,
          99,
          100,
          101,
          102,
          103,
          104,
          105,
          106,
          107,
          108,
          109,
          110,
          111,
          112,
          113,
          114,
          115,
          116,
          117,
          118,
          119,
          120,
          121,
          122,
          123,
          124,
          125,
          126,
          127,
          128,
          129,
          130,
          131,
          132,
          133,
          134,
          135,
          136,
          137,
          138,
          139,
          140,
          141,
          142,
          143,
          144,
          145,
          146,
          147,
          148,
          149,
          150
        ],
        "AcquisitionTime": [
          "123004.262500",
          "123006.872500",
          "123009.482500",
          "123012.092500",
          "123014.702500",
          "123017.315000",
          "123019.925000",
          "123022.535000",
          "123025.145000",
          "123027.755000",
          "123030.365000",
          "123032.977500",
          "123035.587500",
          "123038.197500",
          "123040.807500",
          "123043.417500",
          "123046.027500",
          "123048.640000",
          "123051.250000",
          "123053.860000",
          "123056.470000",
          "123059.080000",
          "123101.692500",
          "123104.302500",
          "123106.912500",
          "123109.522500",
          "123112.132500",
          "123114.742500",
          "123117.355000",
          "123119.965000",
          "123122.575000",
          "123125.185000",
          "123127.795000",
          "123130.405000",
          "123133.017500",
          "123135.627500",
          "123138.237500",
          "123140.847500",
          "123143.457500",
          "123146.070000",
          "123148.680000",
          "123151.290000",
          "123153.900000",
          "123156.510000",
          "123159.120000",
          "123201.732500",
          "123204.342500",
          "123206.952500",
          "123209.562500",
          "123212.172500",
          "123214.782500",
          "123217.395000",
          "123220.005000",
          "123222.615000",
          "123225.225000",
          "123227.835000",
          "123230.447500",
          "123233.057500",
          "123235.667500",
          "123238.277500",
          "123240.887500",
          "123243.497500",
          "123246.110000",
          "123248.720000",
          "123251.330000",
          "123253.940000",
          "123256.550000",
          "123259.160000",
          "123301.772500",
          "123304.382500",
          "123306.992500",
          "123309.602500",
          "123312.212500",
          "123314.825000",
          "123317.435000",
          "123320.045000",
          "123322.655000",
          "123325.265000",
          "123327.875000",
          "123330.487500",
          "123333.097500",
          "123335.707500",
          "123338.317500",
          "123340.927500",
          "123343.537500",
          "123346.150000",
          "123348.760000",
          "123351.370000",
          "123353.980000",
          "123356.590000",
          "123359.202500",
          "123401.812500",
          "123404.422500",
          "123407.032500",
          "123409.642500",
          "123412.252500",
          "123414.865000",
          "123417.475000",
          "123420.085000",
          "123422.695000",
          "123425.305000",
          "123427.915000",
          "123430.527500",
          "123433.137500",
          "123435.747500",
          "123438.357500",
          "123440.967500",
          "123443.580000",
          "123446.190000",
          "123448.800000",
          "123451.410000",
          "123454.020000",
          "123456.630000",
          "123459.242500",
          "123501.852500",
          "123504.462500",
          "123507.072500",
          "123509.682500",
          "123512.292500",
          "123514.905000",
          "123517.515000",
          "123520.125000",
          "123522.735000",
          "123525.345000",
          "123527.957500",
          "123530.567500",
          "123533.177500",
          "123535.787500",
          "123538.397500",
          "123541.007500",
          "123543.620000",
          "123546.230000",
          "123548.840000",
          "123551.450000",
          "123554.060000",
          "123556.672500",
          "123559.282500",
          "123601.892500",
          "123604.502500",
          "123607.112500",
          "123609.722500",
          "123612.335000",
          "123614.945000",
          "123617.555000",
          "123620.165000",
          "123622.775000",
          "123625.385000",
          "123627.997500",
          "123630.607500",
          "123633.217500"
        ],
        "ContentTime": [
          "123013.687000",
          "123014.687000",
          "123014.687000",
          "123016.687000",
          "123019.187000",
          "123022.187000",
          "123024.687000",
          "123027.187000",
          "123029.687000",
          "123032.187000",
          "123035.187000",
          "123037.687000",
          "123040.187000",
          "123042.687000",
          "123045.187000",
          "123048.187000",
          "123050.687000",
          "123053.187000",
          "123055.687000",
          "123058.187000",
          "123101.187000",
          "123103.687000",
          "123106.187000",
          "123108.687000",
          "123111.187000",
          "123114.187000",
          "123116.687000",
          "123119.187000",
          "123121.687000",
          "123124.187000",
          "123127.187000",
          "123129.687000",
          "123132.187000",
          "123134.687000",
          "123137.187000",
          "123140.187000",
          "123142.687000",
          "123145.187000",
          "123147.687000",
          "123150.187000",
          "123153.187000",
          "123155.687000",
          "123158.187000",
          "123200.687000",
          "123203.187000",
          "123206.187000",
          "123208.687000",
          "123211.187000",
          "123213.687000",
          "123216.187000",
          "123219.187000",
          "123221.687000",
          "123224.187000",
          "123226.687000",
          "123229.187000",
          "123232.187000",
          "123234.687000",
          "123237.187000",
          "123239.687000",
          "123242.187000",
          "123245.187000",
          "123247.687000",
          "123250.187000",
          "123252.687000",
          "123255.187000",
          "123258.187000",
          "123300.687000",
          "123303.187000",
          "123305.687000",
          "123308.187000",
          "123311.187000",
          "123313.687000",
          "123316.187000",
          "123318.687000",
          "123321.187000",
          "123324.187000",
          "123326.687000",
          "123329.187000",
          "123331.687000",
          "123334.187000",
          "123337.187000",
          "123339.687000",
          "123342.187000",
          "123344.687000",
          "123347.187000",
          "123350.187000",
          "123352.687000",
          "123355.187000",
          "123357.687000",
          "123400.187000",
          "123403.187000",
          "123405.687000",
          "123408.187000",
          "123410.687000",
          "123413.187000",
          "123416.187000",
          "123418.687000",
          "123421.187000",
          "123423.687000",
          "123426.187000",
          "123429.187000",
          "123431.687000",
          "123434.187000",
          "123436.687000",
          "123439.187000",
          "123442.187000",
          "123444.687000",
          "123447.187000",
          "123449.687000",
          "123452.187000",
          "123455.187000",
          "123457.687000",
          "123500.187000",
          "123502.687000",
          "123505.187000",
          "123508.187000",
          "123510.687000",
          "123513.187000",
          "123515.687000",
          "123518.187000",
          "123521.187000",
          "123523.687000",
          "123526.187000",
          "123528.687000",
          "123531.187000",
          "123534.187000",
          "123536.687000",
          "123539.187000",
          "123541.687000",
          "123544.187000",
          "123547.187000",
          "123549.687000",
          "123552.187000",
          "123554.687000",
          "123557.187000",
          "123600.187000",
          "123602.687000",
          "123605.187000",
          "123607.687000",
          "123610.187000",
          "123613.187000",
          "123615.687000",
          "123618.187000",
          "123620.687000",
          "123623.187000",
          "123626.187000",
          "123628.687000",
          "123631.187000",
          "123633.687000",
          "123641.140000"
        ],
        "InstanceCreationTime": [
          "123013.687000",
          "123014.687000",
          "123014.687000",
          "123016.687000",
          "123019.187000",
          "123022.187000",
          "123024.687000",
          "123027.187000",
          "123029.687000",
          "123032.187000",
          "123035.187000",
          "123037.687000",
          "123040.187000",
          "123042.687000",
          "123045.187000",
          "123048.187000",
          "123050.687000",
          "123053.187000",
          "123055.687000",
          "123058.187000",
          "123101.187000",
          "123103.687000",
          "123106.187000",
          "123108.687000",
          "123111.187000",
          "123114.187000",
          "123116.687000",
          "123119.187000",
          "123121.687000",
          "123124.187000",
          "123127.187000",
          "123129.687000",
          "123132.187000",
          "123134.687000",
          "123137.187000",
          "123140.187000",
          "123142.687000",
          "123145.187000",
          "123147.687000",
          "123150.187000",
          "123153.187000",
          "123155.687000",
          "123158.187000",
          "123200.687000",
          "123203.187000",
          "123206.187000",
          "123208.687000",
          "123211.187000",
          "123213.687000",
          "123216.187000",
          "123219.187000",
          "123221.687000",
          "123224.187000",
          "123226.687000",
          "123229.187000",
          "123232.187000",
          "123234.687000",
          "123237.187000",
          "123239.687000",
          "123242.187000",
          "123245.187000",
          "123247.687000",
          "123250.187000",
          "123252.687000",
          "123255.187000",
          "123258.187000",
          "123300.687000",
          "123303.187000",
          "123305.687000",
          "123308.187000",
          "123311.187000",
          "123313.687000",
          "123316.187000",
          "123318.687000",
          "123321.187000",
          "123324.187000",
          "123326.687000",
          "123329.187000",
          "123331.687000",
          "123334.187000",
          "123337.187000",
          "123339.687000",
          "123342.187000",
          "123344.687000",
          "123347.187000",
          "123350.187000",
          "123352.687000",
          "123355.187000",
          "123357.687000",
          "123400.187000",
          "123403.187000",
          "123405.687000",
          "123408.187000",
          "123410.687000",
          "123413.187000",
          "123416.187000",
          "123418.687000",
          "123421.187000",
          "123423.687000",
          "123426.187000",
          "123429.187000",
          "123431.687000",
          "123434.187000",
          "123436.687000",
          "123439.187000",
          "123442.187000",
          "123444.687000",
          "123447.187000",
          "123449.687000",
          "123452.187000",
          "123455.187000",
          "123457.687000",
          "123500.187000",
          "123502.687000",
          "123505.187000",
          "123508.187000",
          "123510.687000",
          "123513.187000",
          "123515.687000",
          "123518.187000",
          "123521.187000",
          "123523.687000",
          "123526.187000",
          "123528.687000",
          "123531.187000",
          "123534.187000",
          "123536.687000",
          "123539.187000",
          "123541.687000",
          "123544.187000",
          "123547.187000",
          "123549.687000",
          "123552.187000",
          "123554.687000",
          "123557.187000",
          "123600.187000",
          "123602.687000",
          "123605.187000",
          "123607.687000",
          "123610.187000",
          "123613.187000",
          "123615.687000",
          "123618.187000",
          "123620.687000",
          "123623.187000",
          "123626.187000",
          "123628.687000",
          "123631.187000",
          "123633.687000",
          "123641.140000"
        ],
        "InstanceNumber": [
          1,
          2,
          3,
          4,
          5,
          6,
          7,
          8,
          9,
          10,
          11,
          12,
          13,
          14,
          15,
          16,
          17,
          18,
          19,
          20,
          21,
          22,
          23,
          24,
          25,
          26,
          27,
          28,
          29,
          30,
          31,
          32,
          33,
          34,
          35,
          36,
          37,
          38,
          39,
          40,
          41,
          42,
          43,
          44,
          45,
          46,
          47,
          48,
          49,
          50,
          51,
          52,
          53,
          54,
          55,
          56,
          57,
          58,
          59,
          60,
          61,
          62,
          63,
          64,
          65,
          66,
          67,
          68,
          69,
          70,
          71,
          72,
          73,
          74,
          75,
          76,
          77,
          78,
          79,
          80,
          81,
          82,
          83,
          84,
          85,
          86,
          87,
          88,
          89,
          90,
          91,
          92,
          93,
          94,
          95,
          96,
          97,
          98,
          99,
          100,
          101,
          102,
          103,
          104,
          105,
          106,
          107,
          108,
          109,
          110,
          111,
          112,
          113,
          114,
          115,
          116,
          117,
          118,
          119,
          120,
          121,
          122,
          123,
          124,
          125,
          126,
          127,
          128,
          129,
          130,
          131,
          132,
          133,
          134,
          135,
          136,
          137,
          138,
          139,
          140,
          141,
          142,
          143,
          144,
          145,
          146,
          147,
          148,
          149,
          150
        ],
        "WindowCenter": [
          898.0,
          896.0,
          895.0,
          893.0,
          893.0,
          893.0,
          893.0,
          895.0,
          894.0,
          894.0,
          893.0,
          893.0,
          893.0,
          894.0,
          894.0,
          893.0,
          893.0,
          894.0,
          895.0,
          894.0,
          894.0,
          893.0,
          894.0,
          895.0,
          895.0,
          895.0,
          895.0,
          895.0,
          895.0,
          895.0,
          895.0,
          895.0,
          895.0,
          894.0,
          894.0,
          894.0,
          893.0,
          894.0,
          894.0,
          895.0,
          895.0,
          894.0,
          895.0,
          894.0,
          894.0,
          895.0,
          895.0,
          895.0,
          895.0,
          895.0,
          895.0,
          895.0,
          895.0,
          895.0,
          894.0,
          894.0,
          895.0,
          894.0,
          894.0,
          894.0,
          894.0,
          894.0,
          894.0,
          894.0,
          894.0,
          895.0,
          895.0,
          894.0,
          895.0,
          895.0,
          895.0,
          896.0,
          896.0,
          895.0,
          895.0,
          895.0,
          896.0,
          896.0,
          896.0,
          895.0,
          894.0,
          895.0,
          894.0,
          895.0,
          897.0,
          896.0,
          896.0,
          895.0,
          895.0,
          895.0,
          896.0,
          897.0,
          898.0,
          897.0,
          896.0,
          895.0,
          895.0,
          895.0,
          895.0,
          894.0,
          894.0,
          895.0,
          894.0,
          894.0,
          894.0,
          895.0,
          894.0,
          895.0,
          895.0,
          896.0,
          896.0,
          896.0,
          899.0,
          899.0,
          898.0,
          897.0,
          896.0,
          895.0,
          894.0,
          894.0,
          894.0,
          894.0,
          894.0,
          896.0,
          896.0,
          896.0,
          896.0,
          897.0,
          896.0,
          895.0,
          894.0,
          895.0,
          894.0,
          894.0,
          894.0,
          893.0,
          893.0,
          894.0,
          895.0,
          894.0,
          893.0,
          894.0,
          895.0,
          897.0,
          896.0,
          896.0,
          896.0,
          897.0,
          898.0,
          896.0
        ],
        "WindowWidth": [
          2091.0,
          2083.0,
          2079.0,
          2074.0,
          2072.0,
          2073.0,
          2076.0,
          2080.0,
          2079.0,
          2078.0,
          2075.0,
          2074.0,
          2076.0,
          2079.0,
          2078.0,
          2075.0,
          2074.0,
          2079.0,
          2081.0,
          2080.0,
          2077.0,
          2075.0,
          2080.0,
          2081.0,
          2081.0,
          2080.0,
          2080.0,
          2082.0,
          2082.0,
          2084.0,
          2083.0,
          2083.0,
          2080.0,
          2077.0,
          2077.0,
          2077.0,
          2076.0,
          2076.0,
          2078.0,
          2082.0,
          2081.0,
          2078.0,
          2080.0,
          2076.0,
          2077.0,
          2081.0,
          2080.0,
          2080.0,
          2082.0,
          2083.0,
          2080.0,
          2082.0,
          2083.0,
          2080.0,
          2079.0,
          2080.0,
          2081.0,
          2078.0,
          2079.0,
          2079.0,
          2078.0,
          2078.0,
          2078.0,
          2077.0,
          2079.0,
          2080.0,
          2079.0,
          2079.0,
          2081.0,
          2081.0,
          2081.0,
          2084.0,
          2083.0,
          2081.0,
          2081.0,
          2081.0,
          2086.0,
          2087.0,
          2084.0,
          2080.0,
          2077.0,
          2079.0,
          2079.0,
          2082.0,
          2087.0,
          2086.0,
          2084.0,
          2082.0,
          2082.0,
          2082.0,
          2086.0,
          2090.0,
          2093.0,
          2088.0,
          2086.0,
          2082.0,
          2081.0,
          2080.0,
          2080.0,
          2078.0,
          2078.0,
          2080.0,
          2079.0,
          2078.0,
          2079.0,
          2080.0,
          2078.0,
          2080.0,
          2083.0,
          2084.0,
          2085.0,
          2087.0,
          2096.0,
          2093.0,
          2089.0,
          2086.0,
          2083.0,
          2081.0,
          2078.0,
          2078.0,
          2077.0,
          2077.0,
          2080.0,
          2084.0,
          2088.0,
          2087.0,
          2088.0,
          2088.0,
          2086.0,
          2081.0,
          2079.0,
          2080.0,
          2077.0,
          2077.0,
          2076.0,
          2076.0,
          2074.0,
          2077.0,
          2079.0,
          2079.0,
          2076.0,
          2078.0,
          2084.0,
          2086.0,
          2088.0,
          2085.0,
          2086.0,
          2091.0,
          2092.0,
          2086.0
        ]
      },
      "slices": {}
    }
  },
  "dummy_trs": 1,
  "dvars_nstd": 66.62060956716219,
  "dvars_std": 1.0270284189864862,
  "dvars_vstd": 1.002942104256757,
  "efc": 0.5608535218731119,
  "fber": 376.45147705078125,
  "fd_mean": 0.05375076909050071,
  "fd_num": 0,
  "fd_perc": 0.0,
  "fwhm_avg": 3.0505117843152374,
  "fwhm_x": 2.9831309367626897,
  "fwhm_y": 2.8557928841106066,
  "fwhm_z": 3.3126115320724163,
  "gcor": 0.00266832,
  "gsr_x": -0.009982585906982422,
  "gsr_y": 0.05622880160808563,
  "provenance": {
    "md5sum": "64d62f4c34a4698ce766a979d75960c3",
    "settings": {
      "fd_thres": 0.2,
      "testing": false
    },
    "software": "mriqc",
    "version": "23.0.1",
    "webapi_port": null,
    "webapi_url": "https://mriqc.nimh.nih.gov/api/v1"
  },
  "size_t": 149,
  "size_x": 188,
  "size_y": 188,
  "size_z": 46,
  "snr": 2.081266775500373,
  "spacing_tr": 2.5999999046325684,
  "spacing_x": 1.0957447290420532,
  "spacing_y": 1.0957447290420532,
  "spacing_z": 1.099999189376831,
  "summary_bg_k": 58.497767709208716,
  "summary_bg_mad": 25.49279609392253,
  "summary_bg_mean": 86.58060455322266,
  "summary_bg_median": 49.657718658447266,
  "summary_bg_n": 1042564.0,
  "summary_bg_p05": 30.671140670776367,
  "summary_bg_p95": 248.85235595703125,
