{
  "aor": 0.0005887333333333333,
  "aqi": 0.013741303333333335,
  "bids_meta": {
    "AcquisitionMatrixPE": 188,
    "AcquisitionNumber": 1,
    "AcquisitionTime": "13:18:26.187500",
    "BandwidthPerPixelPhaseEncode": 19.46,
    "BaseResolution": 188,
    "ConversionSoftware": "dcm2niix",
    "ConversionSoftwareVersion": "v1.0.20180606 GCC4.8.5",
    "DelayTime": 1.2,
    "DerivedVendorReportedEchoSpacing": 0.000820013,
    "DeviceSerialNumber": "18930",
    "DwellTime": 1.9e-06,
    "EchoTime": 0.02,
    "EffectiveEchoSpacing": 0.000273338,
    "FlipAngle": 80,
    "ImageComments": "Unaliased_MB2_PE2",
    "ImageOrientationPatientDICOM": [
      0.997181,
      0.0711839,
      -0.0237294,
      -0.0291347,
      0.0758841,
      -0.996691
    ],
    "ImageType": [
      "ORIGINAL",
      "PRIMARY",
      "M",
      "MB",
      "ND",
      "MOSAIC"
    ],
    "InPlanePhaseEncodingDirectionDICOM": "COL",
    "InstitutionAddress": "Oxfordlaan_55_Maastricht_753AAF_Limburg_NL_6229_EV",
    "InstitutionName": "Scannexus",
    "InstitutionalDepartmentName": "MRI_7T",
    "MRAcquisitionType": "2D",
    "MagneticFieldStrength": 6.98,
    "Manufacturer": "Siemens",
    "ManufacturersModelName": "Investigational_Device_7T",
    "Modality": "MR",
    "MultibandAccelerationFactor": 2,
    "ParallelReductionFactorInPlane": 3,
    "PartialFourier": 0.75,
    "PatientPosition": "HFS",
    "PercentPhaseFOV": 100,
    "PhaseEncodingDirection": "j",
    "PhaseEncodingSteps": 141,
    "PhaseResolution": 1,
    "PixelBandwidth": 1400,
    "ProcedureStepDescription": "FeDem_Faruk",
    "ProtocolName": "cmrr_mbep2d_bold_AP_run7",
    "PulseSequenceDetails": "%CustomerSeq%_cmrr_mbep2d_bold",
    "ReceiveCoilName": "32Ch_Head_7T",
    "ReconMatrixPE": 188,
    "RepetitionTime": 2.6,
    "SAR": 0.0983339,
    "ScanOptions": "PFP_FS",
    "ScanningSequence": "EP",
    "SequenceName": "epfid2d1_188",
    "SequenceVariant": "SK_SS",
    "SeriesDescription": "cmrr_mbep2d_bold_AP_run7",
    "SeriesNumber": 24,
    "ShimSetting": [
      124,
      -13,
      480,
      316,
      30,
      25,
      -149,
      154
    ],
    "SliceThickness": 1.1,
    "SliceTiming": [
      0,
      0.7325,
      0.0625,
      0.795,
      0.1225,
      0.855,
      0.1825,
      0.9175,
      0.245,
      0.9775,
      0.305,
      1.04,
      0.3675,
      1.1,
      0.4275,
      1.16,
      0.49,
      1.2225,
      0.55,
      1.2825,
      0.61,
      1.345,
      0.6725,
      0,
      0.7325,
      0.0625,
      0.795,
      0.1225,
      0.855,
      0.1825,
      0.9175,
      0.245,
      0.9775,
      0.305,
      1.04,
      0.3675,
      1.1,
      0.4275,
      1.16,
      0.49,
      1.2225,
      0.55,
      1.2825,
      0.61,
      1.345,
      0.6725
    ],
    "SoftwareVersions": "syngo_MR_B17",
    "SpacingBetweenSlices": 1.1,
    "StationName": "MRC18930",
    "TaskName": "auditory",
    "TotalReadoutTime": 0.0511141,
    "TxRefAmp": 240,
    "dataset": "ds001942",
    "dcmmeta_affine": [
      [
        -1.0926557779312134,
        -0.03192422166466713,
        0.07606232911348343,
        100.94556427001953
      ],
      [
        -0.07799933105707169,
        0.08314957469701767,
        -1.0940289497375488,
        45.8215217590332
      ],
      [
        -0.026001356542110443,
        1.0921188592910767,
        0.08551841974258423,
        -111.3921890258789
      ],
      [
        0.0,
        0.0,
        0.0,
        1.0
      ]
    ],
    "dcmmeta_reorient_transform": [
      [
        0.0,
        -1.0,
        0.0,
        187.0
      ],
      [
        1.0,
        0.0,
        0.0,
        0.0
      ],
      [
        0.0,
        0.0,
        1.0,
        0.0
      ],
      [
        0.0,
        0.0,
        0.0,
        1.0
      ]
    ],
    "dcmmeta_shape": [
      188,
      188,
      46,
      150
    ],
    "dcmmeta_slice_dim": 2,
    "dcmmeta_version": 0.6,
    "global": {
      "const": {
        "AcquisitionMatrix": [
          188,
          0,
          0,
          188
        ],
        "AngioFlag": "N",
        "BitsAllocated": 16,
        "BitsStored": 12,
        "Columns": 1316,
        "EchoNumbers": 1,
        "EchoTime": 20.0,
        "EchoTrainLength": 1,
        "FlipAngle": 80.0,
        "HighBit": 11,
        "ImageOrientationPatient": [
          0.99718091373392,
          0.07118385490261,
          -0.0237293928702,
          -0.0291347245826,
          0.07588407592936,
          -0.9966909123915
        ],
        "ImagePositionPatient": [
          -693.22830466268,
          -152.25847882604,
          723.45380250763
        ],
        "ImageType": [
          "ORIGINAL",
          "PRIMARY",
          "M",
          "MB",
          "ND",
          "MOSAIC"
        ],
        "ImagedNucleus": "1H",
        "ImagingFrequency": 297.205601,
        "InPlanePhaseEncodingDirection": "COL",
        "LargestImagePixelValue": 4095,
        "MRAcquisitionType": "2D",
        "MagneticFieldStrength": 6.98,
        "Manufacturer": "SIEMENS",
        "ManufacturerModelName": "Investigational_Device_7T",
        "Modality": "MR",
        "NumberOfAverages": 1.0,
        "NumberOfPhaseEncodingSteps": 141,
        "PercentPhaseFieldOfView": 100.0,
        "PercentSampling": 100.0,
        "PerformedProcedureStepStartTime": "115418.265000",
        "PhotometricInterpretation": "MONOCHROME2",
        "PixelBandwidth": 1400.0,
        "PixelRepresentation": 0,
        "PixelSpacing": [
          1.0957447290421,
          1.0957447290421
        ],
        "ProtocolName": "cmrr_mbep2d_bold_AP_run7",
        "RepetitionTime": 2600.0,
        "Rows": 1316,
        "SAR": 0.09833389040527,
        "SamplesPerPixel": 1,
        "ScanOptions": [
          "PFP",
          "FS"
        ],
        "ScanningSequence": "EP",
        "SequenceName": "epfid2d1_188",
        "SequenceVariant": [
          "SK",
          "SS"
        ],
        "SeriesDescription": "cmrr_mbep2d_bold_AP_run7",
        "SeriesNumber": 24,
        "SeriesTime": "131835.593000",
        "SliceLocation": -47.252764297263,
        "SliceThickness": 1.1000000238419,
        "SmallestImagePixelValue": 0,
        "SoftwareVersions": "syngo MR B17",
        "SpacingBetweenSlices": 1.099999210794,
        "SpecificCharacterSet": "ISO_IR 100",
        "StudyID": "1",
        "StudyTime": "115418.140000",
        "TransmitCoilName": "32Ch_Head_7T",
        "VariableFlipAngleFlag": "N",
        "WindowCenterWidthExplanation": "Algo1",
        "dBdt": 0.0
      },
      "slices": {}
    },
    "modality": "bold",
    "run_id": 7,
    "session_id": "SES02",
    "subject_id": "S11",
    "task_id": "auditory",
    "time": {
      "samples": {
        "AcquisitionNumber": [
          1,
          2,
          3,
          4,
          5,
          6,
          7,
          8,
          9,
          10,
          11,
          12,
          13,
          14,
          15,
          16,
          17,
          18,
          19,
          20,
          21,
          22,
          23,
          24,
          25,
          26,
          27,
          28,
          29,
          30,
          31,
          32,
          33,
          34,
          35,
          36,
          37,
          38,
          39,
          40,
          41,
          42,
          43,
          44,
          45,
          46,
          47,
          48,
          49,
          50,
          51,
          52,
          53,
          54,
          55,
          56,
          57,
          58,
          59,
          60,
          61,
          62,
          63,
          64,
          65,
          66,
          67,
          68,
          69,
          70,
          71,
          72,
          73,
          74,
          75,
          76,
          77,
          78,
          79,
          80,
          81,
          82,
          83,
          84,
          85,
          86,
          87,
          88,
          89,
          90,
          91,
          92,
          93,
          94,
          95,
          96,
          97,
          98,
          99,
          100,
          101,
          102,
          103,
          104,
          105,
          106,
          107,
          108,
          109,
          110,
          111,
          112,
          113,
          114,
          115,
          116,
          117,
          118,
          119,
          120,
          121,
          122,
          123,
          124,
          125,
          126,
          127,
          128,
          129,
          130,
          131,
          132,
          133,
          134,
          135,
          136,
          137,
          138,
          139,
          140,
          141,
          142,
          143,
          144,
          145,
          146,
          147,
          148,
          149,
          150
        ],
        "AcquisitionTime": [
          "131826.187500",
          "131828.797500",
          "131831.407500",
          "131834.020000",
          "131836.630000",
          "131839.240000",
          "131841.850000",
          "131844.460000",
          "131847.070000",
          "131849.682500",
          "131852.292500",
          "131854.902500",
          "131857.512500",
          "131900.122500",
          "131902.735000",
          "131905.345000",
          "131907.955000",
          "131910.565000",
          "131913.175000",
          "131915.785000",
          "131918.397500",
          "131921.007500",
          "131923.617500",
          "131926.227500",
          "131928.837500",
          "131931.447500",
          "131934.060000",
          "131936.670000",
          "131939.280000",
          "131941.890000",
          "131944.500000",
          "131947.112500",
          "131949.722500",
          "131952.332500",
          "131954.942500",
          "131957.552500",
          "132000.162500",
          "132002.775000",
          "132005.385000",
          "132007.995000",
          "132010.605000",
          "132013.215000",
          "132015.825000",
          "132018.437500",
          "132021.047500",
          "132023.657500",
          "132026.267500",
          "132028.877500",
          "132031.490000",
          "132034.100000",
          "132036.710000",
          "132039.320000",
          "132041.930000",
          "132044.540000",
          "132047.152500",
          "132049.762500",
          "132052.372500",
          "132054.982500",
          "132057.592500",
          "132100.202500",
          "132102.815000",
          "132105.425000",
          "132108.035000",
          "132110.645000",
          "132113.255000",
          "132115.867500",
          "132118.477500",
          "132121.087500",
          "132123.697500",
          "132126.307500",
          "132128.917500",
          "132131.530000",
          "132134.140000",
          "132136.750000",
          "132139.360000",
          "132141.970000",
          "132144.580000",
          "132147.192500",
          "132149.802500",
          "132152.412500",
          "132155.022500",
          "132157.632500",
          "132200.245000",
          "132202.855000",
          "132205.465000",
          "132208.075000",
          "132210.685000",
          "132213.295000",
          "132215.907500",
          "132218.517500",
          "132221.127500",
          "132223.737500",
          "132226.347500",
          "132228.957500",
          "132231.570000",
          "132234.180000",
          "132236.790000",
          "132239.400000",
          "132242.010000",
          "132244.622500",
          "132247.232500",
          "132249.842500",
          "132252.452500",
          "132255.062500",
          "132257.672500",
          "132300.285000",
          "132302.895000",
          "132305.505000",
          "132308.115000",
          "132310.725000",
          "132313.337500",
          "132315.947500",
          "132318.557500",
          "132321.167500",
          "132323.777500",
          "132326.387500",
          "132329.000000",
          "132331.610000",
          "132334.220000",
          "132336.830000",
          "132339.440000",
          "132342.050000",
          "132344.662500",
          "132347.272500",
          "132349.882500",
          "132352.492500",
          "132355.102500",
          "132357.715000",
          "132400.325000",
          "132402.935000",
          "132405.545000",
          "132408.155000",
          "132410.765000",
          "132413.377500",
          "132415.987500",
          "132418.597500",
          "132421.207500",
          "132423.817500",
          "132426.427500",
          "132429.040000",
          "132431.650000",
          "132434.260000",
          "132436.870000",
          "132439.480000",
          "132442.092500",
          "132444.702500",
          "132447.312500",
          "132449.922500",
          "132452.532500",
          "132455.142500"
        ],
        "ContentTime": [
          "131835.609000",
          "131835.609000",
          "131836.593000",
          "131838.593000",
          "131841.093000",
          "131843.593000",
          "131846.593000",
          "131849.093000",
          "131851.593000",
          "131854.093000",
          "131857.093000",
          "131859.593000",
          "131902.093000",
          "131904.593000",
          "131907.093000",
          "131910.093000",
          "131912.593000",
          "131915.093000",
          "131917.593000",
          "131920.093000",
          "131923.093000",
          "131925.593000",
          "131928.093000",
          "131930.593000",
          "131933.093000",
          "131936.093000",
          "131938.593000",
          "131941.093000",
          "131943.593000",
          "131946.093000",
          "131949.093000",
          "131951.593000",
          "131954.093000",
          "131956.593000",
          "131959.093000",
          "132002.093000",
          "132004.593000",
          "132007.093000",
          "132009.593000",
          "132012.093000",
          "132015.093000",
          "132017.593000",
          "132020.093000",
          "132022.593000",
          "132025.093000",
          "132027.593000",
          "132030.593000",
          "132033.093000",
          "132035.593000",
          "132038.093000",
          "132041.093000",
          "132043.593000",
          "132046.093000",
          "132048.593000",
          "132051.093000",
          "132054.093000",
          "132056.593000",
          "132059.093000",
          "132101.593000",
          "132104.093000",
          "132107.093000",
          "132109.593000",
          "132112.093000",
          "132114.593000",
          "132117.093000",
          "132120.093000",
          "132122.593000",
          "132125.093000",
          "132127.593000",
          "132130.093000",
          "132133.093000",
          "132135.593000",
          "132138.093000",
          "132140.593000",
          "132143.093000",
          "132146.093000",
          "132148.593000",
          "132151.093000",
          "132153.593000",
          "132156.093000",
          "132159.093000",
          "132201.593000",
          "132204.093000",
          "132206.593000",
          "132209.093000",
          "132211.593000",
          "132214.593000",
          "132217.093000",
          "132219.593000",
          "132222.093000",
          "132225.093000",
          "132227.593000",
          "132230.093000",
          "132232.593000",
          "132235.093000",
          "132238.093000",
          "132240.593000",
          "132243.093000",
          "132245.593000",
          "132248.093000",
          "132251.093000",
          "132253.593000",
          "132256.093000",
          "132258.593000",
          "132301.093000",
          "132304.093000",
          "132306.593000",
          "132309.093000",
          "132311.593000",
          "132314.093000",
          "132317.093000",
          "132319.593000",
          "132322.093000",
          "132324.593000",
          "132327.093000",
          "132330.093000",
          "132332.593000",
          "132335.093000",
          "132337.593000",
          "132340.093000",
          "132343.093000",
          "132345.593000",
          "132348.093000",
          "132350.593000",
          "132353.093000",
          "132356.093000",
          "132358.593000",
          "132401.093000",
          "132403.593000",
          "132406.093000",
          "132409.093000",
          "132411.593000",
          "132414.093000",
          "132416.593000",
          "132419.093000",
          "132422.093000",
          "132424.593000",
          "132427.093000",
          "132429.593000",
          "132432.093000",
          "132435.093000",
          "132437.593000",
          "132440.093000",
          "132442.593000",
          "132445.093000",
          "132448.093000",
          "132450.593000",
          "132453.093000",
          "132455.593000",
          "132502.984000"
        ],
        "InstanceCreationTime": [
          "131835.609000",
          "131835.609000",
          "131836.593000",
          "131838.593000",
          "131841.093000",
          "131843.593000",
          "131846.593000",
          "131849.093000",
          "131851.593000",
          "131854.093000",
          "131857.093000",
          "131859.593000",
          "131902.093000",
          "131904.593000",
          "131907.093000",
          "131910.093000",
          "131912.593000",
          "131915.093000",
          "131917.593000",
          "131920.093000",
          "131923.093000",
          "131925.593000",
          "131928.093000",
          "131930.593000",
          "131933.093000",
          "131936.093000",
          "131938.593000",
          "131941.093000",
          "131943.593000",
          "131946.093000",
          "131949.093000",
          "131951.593000",
          "131954.093000",
          "131956.593000",
          "131959.093000",
          "132002.093000",
          "132004.593000",
          "132007.093000",
          "132009.593000",
          "132012.093000",
          "132015.093000",
          "132017.593000",
          "132020.093000",
          "132022.593000",
          "132025.093000",
          "132027.593000",
          "132030.593000",
          "132033.093000",
          "132035.593000",
          "132038.093000",
          "132041.093000",
          "132043.593000",
          "132046.093000",
          "132048.593000",
          "132051.093000",
          "132054.093000",
          "132056.593000",
          "132059.093000",
          "132101.593000",
          "132104.093000",
          "132107.093000",
          "132109.593000",
          "132112.093000",
          "132114.593000",
          "132117.093000",
          "132120.093000",
          "132122.593000",
          "132125.093000",
          "132127.593000",
          "132130.093000",
          "132133.093000",
          "132135.593000",
          "132138.093000",
          "132140.593000",
          "132143.093000",
          "132146.093000",
          "132148.593000",
          "132151.093000",
          "132153.593000",
          "132156.093000",
          "132159.093000",
          "132201.593000",
          "132204.093000",
          "132206.593000",
          "132209.093000",
          "132211.593000",
          "132214.593000",
          "132217.093000",
          "132219.593000",
          "132222.093000",
          "132225.093000",
          "132227.593000",
          "132230.093000",
          "132232.593000",
          "132235.093000",
          "132238.093000",
          "132240.593000",
          "132243.093000",
          "132245.593000",
          "132248.093000",
          "132251.093000",
          "132253.593000",
          "132256.093000",
          "132258.593000",
          "132301.093000",
          "132304.093000",
          "132306.593000",
          "132309.093000",
          "132311.593000",
          "132314.093000",
          "132317.093000",
          "132319.593000",
          "132322.093000",
          "132324.593000",
          "132327.093000",
          "132330.093000",
          "132332.593000",
          "132335.093000",
          "132337.593000",
          "132340.093000",
          "132343.093000",
          "132345.593000",
          "132348.093000",
          "132350.593000",
          "132353.093000",
          "132356.093000",
          "132358.593000",
          "132401.093000",
          "132403.593000",
          "132406.093000",
          "132409.093000",
          "132411.593000",
          "132414.093000",
          "132416.593000",
          "132419.093000",
          "132422.093000",
          "132424.593000",
          "132427.093000",
          "132429.593000",
          "132432.093000",
          "132435.093000",
          "132437.593000",
          "132440.093000",
          "132442.593000",
          "132445.093000",
          "132448.093000",
          "132450.593000",
          "132453.093000",
          "132455.593000",
          "132502.984000"
        ],
        "InstanceNumber": [
          1,
          2,
          3,
          4,
          5,
          6,
          7,
          8,
          9,
          10,
          11,
          12,
          13,
          14,
          15,
          16,
          17,
          18,
          19,
          20,
          21,
          22,
          23,
          24,
          25,
          26,
          27,
          28,
          29,
          30,
          31,
          32,
          33,
          34,
          35,
          36,
          37,
          38,
          39,
          40,
          41,
          42,
          43,
          44,
          45,
          46,
          47,
          48,
          49,
          50,
          51,
          52,
          53,
          54,
          55,
          56,
          57,
          58,
          59,
          60,
          61,
          62,
          63,
          64,
          65,
          66,
          67,
          68,
          69,
          70,
          71,
          72,
          73,
          74,
          75,
          76,
          77,
          78,
          79,
          80,
          81,
          82,
          83,
          84,
          85,
          86,
          87,
          88,
          89,
          90,
          91,
          92,
          93,
          94,
          95,
          96,
          97,
          98,
          99,
          100,
          101,
          102,
          103,
          104,
          105,
          106,
          107,
          108,
          109,
          110,
          111,
          112,
          113,
          114,
          115,
          116,
          117,
          118,
          119,
          120,
          121,
          122,
          123,
          124,
          125,
          126,
          127,
          128,
          129,
          130,
          131,
          132,
          133,
          134,
          135,
          136,
          137,
          138,
          139,
          140,
          141,
          142,
          143,
          144,
          145,
          146,
          147,
          148,
          149,
          150
        ],
        "WindowCenter": [
          896.0,
          894.0,
          894.0,
          894.0,
          895.0,
          897.0,
          897.0,
          896.0,
          895.0,
          895.0,
          895.0,
          896.0,
          896.0,
          897.0,
          897.0,
          896.0,
          895.0,
          895.0,
          894.0,
          895.0,
          896.0,
          896.0,
          896.0,
          896.0,
          896.0,
          895.0,
          895.0,
          896.0,
          899.0,
          899.0,
          897.0,
          896.0,
          895.0,
          895.0,
          896.0,
          895.0,
          896.0,
          897.0,
          900.0,
          899.0,
          898.0,
          896.0,
          895.0,
          895.0,
          896.0,
          894.0,
          895.0,
          895.0,
          895.0,
          895.0,
          897.0,
          897.0,
          896.0,
          895.0,
          894.0,
          895.0,
          896.0,
          896.0,
          897.0,
          897.0,
          898.0,
          899.0,
          898.0,
          896.0,
          895.0,
          894.0,
          893.0,
          895.0,
          895.0,
          895.0,
          894.0,
          894.0,
          897.0,
          897.0,
          897.0,
          896.0,
          896.0,
          895.0,
          895.0,
          895.0,
          896.0,
          898.0,
          897.0,
          896.0,
          895.0,
          895.0,
          895.0,
          895.0,
          895.0,
          894.0,
          895.0,
          896.0,
          896.0,
          896.0,
          895.0,
          895.0,
          894.0,
          896.0,
          897.0,
          895.0,
          894.0,
          895.0,
          896.0,
          897.0,
          898.0,
          899.0,
          899.0,
          898.0,
          896.0,
          895.0,
          896.0,
          896.0,
          898.0,
          900.0,
          898.0,
          897.0,
          895.0,
          895.0,
          895.0,
          896.0,
          897.0,
          896.0,
          896.0,
          896.0,
          895.0,
          895.0,
          896.0,
          896.0,
          896.0,
          896.0,
          896.0,
          898.0,
          901.0,
          900.0,
          898.0,
          897.0,
          897.0,
          897.0,
          896.0,
          896.0,
          896.0,
          896.0,
          897.0,
          898.0,
          898.0,
          897.0,
          897.0,
          898.0,
          897.0,
          896.0
        ],
        "WindowWidth": [
          2085.0,
          2080.0,
          2078.0,
          2079.0,
          2083.0,
          2089.0,
          2088.0,
          2085.0,
          2083.0,
          2084.0,
          2084.0,
          2085.0,
          2088.0,
          2090.0,
          2089.0,
          2085.0,
          2083.0,
          2083.0,
          2080.0,
          2081.0,
          2087.0,
          2087.0,
          2086.0,
          2088.0,
          2086.0,
          2084.0,
          2082.0,
          2086.0,
          2098.0,
          2095.0,
          2088.0,
          2086.0,
          2083.0,
          2084.0,
          2087.0,
          2085.0,
          2085.0,
          2092.0,
          2101.0,
          2095.0,
          2091.0,
          2085.0,
          2081.0,
          2083.0,
          2086.0,
          2081.0,
          2082.0,
          2081.0,
          2083.0,
          2086.0,
          2091.0,
          2088.0,
          2086.0,
          2081.0,
          2080.0,
          2081.0,
          2086.0,
          2089.0,
          2091.0,
          2090.0,
          2095.0,
          2099.0,
          2093.0,
          2086.0,
          2080.0,
          2076.0,
          2077.0,
          2084.0,
          2083.0,
          2081.0,
          2079.0,
          2081.0,
          2090.0,
          2091.0,
          2089.0,
          2085.0,
          2085.0,
          2081.0,
          2081.0,
          2083.0,
          2089.0,
          2094.0,
          2091.0,
          2084.0,
          2080.0,
          2083.0,
          2083.0,
          2083.0,
          2083.0,
          2080.0,
          2081.0,
          2088.0,
          2087.0,
          2087.0,
          2084.0,
          2082.0,
          2080.0,
          2087.0,
          2089.0,
          2082.0,
          2081.0,
          2085.0,
          2086.0,
          2091.0,
          2093.0,
          2097.0,
          2096.0,
          2093.0,
          2086.0,
          2083.0,
          2087.0,
          2089.0,
          2095.0,
          2100.0,
          2093.0,
          2088.0,
          2082.0,
          2082.0,
          2084.0,
          2088.0,
          2089.0,
          2086.0,
          2085.0,
          2084.0,
          2082.0,
          2082.0,
          2085.0,
          2088.0,
          2085.0,
          2085.0,
          2089.0,
          2097.0,
          2104.0,
          2098.0,
          2093.0,
          2089.0,
          2090.0,
          2089.0,
          2087.0,
          2085.0,
          2086.0,
          2089.0,
          2092.0,
          2094.0,
          2093.0,
          2090.0,
          2092.0,
          2093.0,
          2089.0,
          2084.0
        ]
      },
      "slices": {}
    }
  },
  "dummy_trs": 0,
  "dvars_nstd": 71.74557362013422,
  "dvars_std": 1.0571616791275165,
  "dvars_vstd": 1.0101134748993292,
  "efc": 0.560141914337705,
  "fber": 373.0951843261719,
  "fd_mean": 0.08241672056168954,
  "fd_num": 8,
  "fd_perc": 5.333333333333333,
  "fwhm_avg": 3.0556442771182,
  "fwhm_x": 2.987109965713905,
  "fwhm_y": 2.862911330399478,
  "fwhm_z": 3.316911535241218,
  "gcor": 0.00390714,
  "gsr_x": -0.008283478207886219,
  "gsr_y": 0.055012885481119156,
  "provenance": {
    "md5sum": "2ec5d9daa1e703cfb5ffc6fbb9ec59ae",
    "settings": {
      "fd_thres": 0.2,
      "testing": false
    },
    "software": "mriqc",
    "version": "23.0.1",
    "webapi_port": null,
    "webapi_url": "https://mriqc.nimh.nih.gov/api/v1"
  },
  "size_t": 150,
  "size_x": 188,
  "size_y": 188,
  "size_z": 46,
  "snr": 2.081985944862062,
  "spacing_tr": 2.5999999046325684,
  "spacing_x": 1.0957447290420532,
  "spacing_y": 1.0957447290420532,
  "spacing_z": 1.099999189376831,
  "summary_bg_k": 56.87676434439813,
  "summary_bg_mad": 25.797275208590296,
  "summary_bg_mean": 87.63444519042969,
  "summary_bg_median": 50.086666107177734,
  "summary_bg_n": 1045819.0,
  "summary_bg_p05": 30.97333335876465,
  "summary_bg_p95": 255.07333374023438,
