{
  "aor": 0.0006523333333333333,
  "aqi": 0.015533283333333333,
  "bids_meta": {
    "AcquisitionMatrixPE": 188,
    "AcquisitionNumber": 1,
    "AcquisitionTime": "10:53:25.877500",
    "BandwidthPerPixelPhaseEncode": 19.46,
    "BaseResolution": 188,
    "ConversionSoftware": "dcm2niix",
    "ConversionSoftwareVersion": "v1.0.20180606 GCC4.8.5",
    "DelayTime": 1.2,
    "DerivedVendorReportedEchoSpacing": 0.000820013,
    "DeviceSerialNumber": "18930",
    "DwellTime": 1.9e-06,
    "EchoTime": 0.02,
    "EffectiveEchoSpacing": 0.000273338,
    "FlipAngle": 75,
    "ImageComments": "Unaliased_MB2_PE2",
    "ImageOrientationPatientDICOM": [
      0.997079,
      0.0533282,
      -0.0546808,
      -0.0647723,
      0.210966,
      -0.975345
    ],
    "ImageType": [
      "ORIGINAL",
      "PRIMARY",
      "M",
      "MB",
      "ND",
      "MOSAIC"
    ],
    "InPlanePhaseEncodingDirectionDICOM": "COL",
    "InstitutionAddress": "Oxfordlaan_55_Maastricht_12C0A2_Limburg_NL_6229_EV",
    "InstitutionName": "Scannexus",
    "InstitutionalDepartmentName": "MRI_7T",
    "MRAcquisitionType": "2D",
    "MagneticFieldStrength": 6.98,
    "Manufacturer": "Siemens",
    "ManufacturersModelName": "Investigational_Device_7T",
    "Modality": "MR",
    "MultibandAccelerationFactor": 2,
    "ParallelReductionFactorInPlane": 3,
    "PartialFourier": 0.75,
    "PatientPosition": "HFS",
    "PercentPhaseFOV": 100,
    "PhaseEncodingDirection": "j",
    "PhaseEncodingSteps": 141,
    "PhaseResolution": 1,
    "PixelBandwidth": 1400,
    "ProcedureStepDescription": "FeDem_Faruk",
    "ProtocolName": "cmrr_mbep2d_bold_AP_run12",
    "PulseSequenceDetails": "%CustomerSeq%_cmrr_mbep2d_bold",
    "ReceiveCoilName": "32Ch_Head_7T",
    "ReconMatrixPE": 188,
    "RepetitionTime": 2.6,
    "SAR": 0.037838,
    "ScanOptions": "PFP_FS",
    "ScanningSequence": "EP",
    "SequenceName": "epfid2d1_188",
    "SequenceVariant": "SK_SS",
    "SeriesDescription": "cmrr_mbep2d_bold_AP_run12",
    "SeriesNumber": 43,
    "ShimSetting": [
      56,
      -76,
      427,
      415,
      -84,
      461,
      -48,
      47
    ],
    "SliceThickness": 1.1,
    "SliceTiming": [
      0,
      0.735,
      0.0625,
      0.795,
      0.1225,
      0.8575,
      0.185,
      0.9175,
      0.245,
      0.9775,
      0.3075,
      1.04,
      0.3675,
      1.1,
      0.43,
      1.1625,
      0.49,
      1.2225,
      0.55,
      1.285,
      0.6125,
      1.345,
      0.6725,
      0,
      0.735,
      0.0625,
      0.795,
      0.1225,
      0.8575,
      0.185,
      0.9175,
      0.245,
      0.9775,
      0.3075,
      1.04,
      0.3675,
      1.1,
      0.43,
      1.1625,
      0.49,
      1.2225,
      0.55,
      1.285,
      0.6125,
      1.345,
      0.6725
    ],
    "SoftwareVersions": "syngo_MR_B17",
    "SpacingBetweenSlices": 1.1,
    "StationName": "MRC18930",
    "TaskName": "auditory",
    "TotalReadoutTime": 0.0511141,
    "TxRefAmp": 170,
    "dataset": "ds001942",
    "dcmmeta_affine": [
      [
        -1.0925438404083252,
        -0.07097391039133072,
        0.04452543705701828,
        105.0876693725586
      ],
      [
        -0.0584341399371624,
        0.2311643660068512,
        -1.0736415386199951,
        29.283571243286133
      ],
      [
        -0.05991622060537338,
        1.068729281425476,
        0.23518379032611847,
        -111.51782989501953
      ],
      [
        0.0,
        0.0,
        0.0,
        1.0
      ]
    ],
    "dcmmeta_reorient_transform": [
      [
        0.0,
        -1.0,
        0.0,
        187.0
      ],
      [
        1.0,
        0.0,
        0.0,
        0.0
      ],
      [
        0.0,
        0.0,
        1.0,
        0.0
      ],
      [
        0.0,
        0.0,
        0.0,
        1.0
      ]
    ],
    "dcmmeta_shape": [
      188,
      188,
      46,
      150
    ],
    "dcmmeta_slice_dim": 2,
    "dcmmeta_version": 0.6,
    "global": {
      "const": {
        "AcquisitionMatrix": [
          188,
          0,
          0,
          188
        ],
        "AngioFlag": "N",
        "BitsAllocated": 16,
        "BitsStored": 12,
        "Columns": 1316,
        "EchoNumbers": 1,
        "EchoTime": 20.0,
        "EchoTrainLength": 1,
        "FlipAngle": 75.0,
        "HighBit": 11,
        "ImageOrientationPatient": [
          0.9970787865409,
          0.05332824067929,
          -0.0546808209171,
          -0.0647723057413,
          0.21096552709947,
          -0.9753451157332
        ],
        "ImagePositionPatient": [
          -667.98097657726,
          -235.84486219037,
          724.89059814474
        ],
        "ImageType": [
          "ORIGINAL",
          "PRIMARY",
          "M",
          "MB",
          "ND",
          "MOSAIC"
        ],
        "ImagedNucleus": "1H",
        "ImagingFrequency": 297.205744,
        "InPlanePhaseEncodingDirection": "COL",
        "LargestImagePixelValue": 4095,
        "MRAcquisitionType": "2D",
        "MagneticFieldStrength": 6.98,
        "Manufacturer": "SIEMENS",
        "ManufacturerModelName": "Investigational_Device_7T",
        "Modality": "MR",
        "NumberOfAverages": 1.0,
        "NumberOfPhaseEncodingSteps": 141,
        "PercentPhaseFieldOfView": 100.0,
        "PercentSampling": 100.0,
        "PerformedProcedureStepStartTime": "081242.234000",
        "PhotometricInterpretation": "MONOCHROME2",
        "PixelBandwidth": 1400.0,
        "PixelRepresentation": 0,
        "PixelSpacing": [
          1.0957447290421,
          1.0957447290421
        ],
        "ProtocolName": "cmrr_mbep2d_bold_AP_run12",
        "RepetitionTime": 2600.0,
        "Rows": 1316,
        "SAR": 0.03783796570347,
        "SamplesPerPixel": 1,
        "ScanOptions": [
          "PFP",
          "FS"
        ],
        "ScanningSequence": "EP",
        "SequenceName": "epfid2d1_188",
        "SequenceVariant": [
          "SK",
          "SS"
        ],
        "SeriesDescription": "cmrr_mbep2d_bold_AP_run12",
        "SeriesNumber": 43,
        "SeriesTime": "105335.671000",
        "SliceLocation": -48.171062132454,
        "SliceThickness": 1.1000000238419,
        "SmallestImagePixelValue": 0,
        "SoftwareVersions": "syngo MR B17",
        "SpacingBetweenSlices": 1.0999999909105,
        "SpecificCharacterSet": "ISO_IR 100",
        "StudyID": "1",
        "StudyTime": "081242.187000",
        "TransmitCoilName": "32Ch_Head_7T",
        "VariableFlipAngleFlag": "N",
        "WindowCenterWidthExplanation": "Algo1",
        "dBdt": 0.0
      },
      "slices": {}
    },
    "modality": "bold",
    "run_id": 11,
    "session_id": "SES02",
    "subject_id": "S01",
    "task_id": "auditory",
    "time": {
      "samples": {
        "AcquisitionNumber": [
          1,
          2,
          3,
          4,
          5,
          6,
          7,
          8,
          9,
          10,
          11,
          12,
          13,
          14,
          15,
          16,
          17,
          18,
          19,
          20,
          21,
          22,
          23,
          24,
          25,
          26,
          27,
          28,
          29,
          30,
          31,
          32,
          33,
          34,
          35,
          36,
          37,
          38,
          39,
          40,
          41,
          42,
          43,
          44,
          45,
          46,
          47,
          48,
          49,
          50,
          51,
          52,
          53,
          54,
          55,
          56,
          57,
          58,
          59,
          60,
          61,
          62,
          63,
          64,
          65,
          66,
          67,
          68,
          69,
          70,
          71,
          72,
          73,
          74,
          75,
          76,
          77,
          78,
          79,
          80,
          81,
          82,
          83,
          84,
          85,
          86,
          87,
          88,
          89,
          90,
          91,
          92,
          93,
          94,
          95,
          96,
          97,
          98,
          99,
          100,
          101,
          102,
          103,
          104,
          105,
          106,
          107,
          108,
          109,
          110,
          111,
          112,
          113,
          114,
          115,
          116,
          117,
          118,
          119,
          120,
          121,
          122,
          123,
          124,
          125,
          126,
          127,
          128,
          129,
          130,
          131,
          132,
          133,
          134,
          135,
          136,
          137,
          138,
          139,
          140,
          141,
          142,
          143,
          144,
          145,
          146,
          147,
          148,
          149,
          150
        ],
        "AcquisitionTime": [
          "105325.877500",
          "105328.490000",
          "105331.100000",
          "105333.710000",
          "105336.320000",
          "105338.930000",
          "105341.540000",
          "105344.152500",
          "105346.762500",
          "105349.372500",
          "105351.982500",
          "105354.592500",
          "105357.205000",
          "105359.815000",
          "105402.425000",
          "105405.035000",
          "105407.645000",
          "105410.255000",
          "105412.867500",
          "105415.477500",
          "105418.087500",
          "105420.697500",
          "105423.307500",
          "105425.917500",
          "105428.530000",
          "105431.140000",
          "105433.750000",
          "105436.360000",
          "105438.970000",
          "105441.582500",
          "105444.192500",
          "105446.802500",
          "105449.412500",
          "105452.022500",
          "105454.632500",
          "105457.245000",
          "105459.855000",
          "105502.465000",
          "105505.075000",
          "105507.685000",
          "105510.295000",
          "105512.907500",
          "105515.517500",
          "105518.127500",
          "105520.737500",
          "105523.347500",
          "105525.960000",
          "105528.570000",
          "105531.180000",
          "105533.790000",
          "105536.400000",
          "105539.010000",
          "105541.622500",
          "105544.232500",
          "105546.842500",
          "105549.452500",
          "105552.062500",
          "105554.672500",
          "105557.285000",
          "105559.895000",
          "105602.505000",
          "105605.115000",
          "105607.725000",
          "105610.337500",
          "105612.947500",
          "105615.557500",
          "105618.167500",
          "105620.777500",
          "105623.387500",
          "105626.000000",
          "105628.610000",
          "105631.220000",
          "105633.830000",
          "105636.440000",
          "105639.050000",
          "105641.662500",
          "105644.272500",
          "105646.882500",
          "105649.492500",
          "105652.102500",
          "105654.715000",
          "105657.325000",
          "105659.935000",
          "105702.545000",
          "105705.155000",
          "105707.765000",
          "105710.377500",
          "105712.987500",
          "105715.597500",
          "105718.207500",
          "105720.817500",
          "105723.427500",
          "105726.040000",
          "105728.650000",
          "105731.260000",
          "105733.870000",
          "105736.480000",
          "105739.092500",
          "105741.702500",
          "105744.312500",
          "105746.922500",
          "105749.532500",
          "105752.142500",
          "105754.755000",
          "105757.365000",
          "105759.975000",
          "105802.585000",
          "105805.195000",
          "105807.805000",
          "105810.417500",
          "105813.027500",
          "105815.637500",
          "105818.247500",
          "105820.857500",
          "105823.470000",
          "105826.080000",
          "105828.690000",
          "105831.300000",
          "105833.910000",
          "105836.520000",
          "105839.132500",
          "105841.742500",
          "105844.352500",
          "105846.962500",
          "105849.572500",
          "105852.185000",
          "105854.795000",
          "105857.405000",
          "105900.015000",
          "105902.625000",
          "105905.235000",
          "105907.847500",
          "105910.457500",
          "105913.067500",
          "105915.677500",
          "105918.287500",
          "105920.897500",
          "105923.510000",
          "105926.120000",
          "105928.730000",
          "105931.340000",
          "105933.950000",
          "105936.562500",
          "105939.172500",
          "105941.782500",
          "105944.392500",
          "105947.002500",
          "105949.612500",
          "105952.225000",
          "105954.835000"
        ],
        "ContentTime": [
          "105335.671000",
          "105336.671000",
          "105336.671000",
          "105338.671000",
          "105341.671000",
          "105344.171000",
          "105346.671000",
          "105349.171000",
          "105351.671000",
          "105354.671000",
          "105357.171000",
          "105359.671000",
          "105402.171000",
          "105404.671000",
          "105407.671000",
          "105410.171000",
          "105412.671000",
          "105415.171000",
          "105417.671000",
          "105420.671000",
          "105423.171000",
          "105425.671000",
          "105428.171000",
          "105430.671000",
          "105433.671000",
          "105436.171000",
          "105438.671000",
          "105441.171000",
          "105443.671000",
          "105446.671000",
          "105449.171000",
          "105451.671000",
          "105454.171000",
          "105456.671000",
          "105459.671000",
          "105502.171000",
          "105504.671000",
          "105507.171000",
          "105509.671000",
          "105512.671000",
          "105515.171000",
          "105517.671000",
          "105520.171000",
          "105523.171000",
          "105525.671000",
          "105528.171000",
          "105530.671000",
          "105533.171000",
          "105535.671000",
          "105538.671000",
          "105541.171000",
          "105543.671000",
          "105546.171000",
          "105548.671000",
          "105551.671000",
          "105554.171000",
          "105556.671000",
          "105559.171000",
          "105601.671000",
          "105604.671000",
          "105607.171000",
          "105609.671000",
          "105612.171000",
          "105614.671000",
          "105617.671000",
          "105620.171000",
          "105622.671000",
          "105625.171000",
          "105627.671000",
          "105630.671000",
          "105633.171000",
          "105635.671000",
          "105638.171000",
          "105640.671000",
          "105643.671000",
          "105646.171000",
          "105648.671000",
          "105651.171000",
          "105653.671000",
          "105656.671000",
          "105659.171000",
          "105701.671000",
          "105704.171000",
          "105706.671000",
          "105709.671000",
          "105712.171000",
          "105714.671000",
          "105717.171000",
          "105719.671000",
          "105722.671000",
          "105725.171000",
          "105727.671000",
          "105730.171000",
          "105732.671000",
          "105735.671000",
          "105738.171000",
          "105740.671000",
          "105743.171000",
          "105745.671000",
          "105748.671000",
          "105751.171000",
          "105753.671000",
          "105756.171000",
          "105758.671000",
          "105801.671000",
          "105804.171000",
          "105806.671000",
          "105809.171000",
          "105811.671000",
          "105814.671000",
          "105817.171000",
          "105819.671000",
          "105822.171000",
          "105824.671000",
          "105827.671000",
          "105830.171000",
          "105832.671000",
          "105835.171000",
          "105837.671000",
          "105840.671000",
          "105843.171000",
          "105845.671000",
          "105848.171000",
          "105850.671000",
          "105853.671000",
          "105856.171000",
          "105858.671000",
          "105901.171000",
          "105903.671000",
          "105906.671000",
          "105909.171000",
          "105911.671000",
          "105914.171000",
          "105916.671000",
          "105919.671000",
          "105922.171000",
          "105924.671000",
          "105927.171000",
          "105929.671000",
          "105932.671000",
          "105935.171000",
          "105937.671000",
          "105940.171000",
          "105942.671000",
          "105945.671000",
          "105948.171000",
          "105950.671000",
          "105953.171000",
          "105955.671000",
          "105958.218000"
        ],
        "InstanceCreationTime": [
          "105335.671000",
          "105336.671000",
          "105336.671000",
          "105338.671000",
          "105341.671000",
          "105344.171000",
          "105346.671000",
          "105349.171000",
          "105351.671000",
          "105354.671000",
          "105357.171000",
          "105359.671000",
          "105402.171000",
          "105404.671000",
          "105407.671000",
          "105410.171000",
          "105412.671000",
          "105415.171000",
          "105417.671000",
          "105420.671000",
          "105423.171000",
          "105425.671000",
          "105428.171000",
          "105430.671000",
          "105433.671000",
          "105436.171000",
          "105438.671000",
          "105441.171000",
          "105443.671000",
          "105446.671000",
          "105449.171000",
          "105451.671000",
          "105454.171000",
          "105456.671000",
          "105459.671000",
          "105502.171000",
          "105504.671000",
          "105507.171000",
          "105509.671000",
          "105512.671000",
          "105515.171000",
          "105517.671000",
          "105520.171000",
          "105523.171000",
          "105525.671000",
          "105528.171000",
          "105530.671000",
          "105533.171000",
          "105535.671000",
          "105538.671000",
          "105541.171000",
          "105543.671000",
          "105546.171000",
          "105548.671000",
          "105551.671000",
          "105554.171000",
          "105556.671000",
          "105559.171000",
          "105601.671000",
          "105604.671000",
          "105607.171000",
          "105609.671000",
          "105612.171000",
          "105614.671000",
          "105617.671000",
          "105620.171000",
          "105622.671000",
          "105625.171000",
          "105627.671000",
          "105630.671000",
          "105633.171000",
          "105635.671000",
          "105638.171000",
          "105640.671000",
          "105643.671000",
          "105646.171000",
          "105648.671000",
          "105651.171000",
          "105653.671000",
          "105656.671000",
          "105659.171000",
          "105701.671000",
          "105704.171000",
          "105706.671000",
          "105709.671000",
          "105712.171000",
          "105714.671000",
          "105717.171000",
          "105719.671000",
          "105722.671000",
          "105725.171000",
          "105727.671000",
          "105730.171000",
          "105732.671000",
          "105735.671000",
          "105738.171000",
          "105740.671000",
          "105743.171000",
          "105745.671000",
          "105748.671000",
          "105751.171000",
          "105753.671000",
          "105756.171000",
          "105758.671000",
          "105801.671000",
          "105804.171000",
          "105806.671000",
          "105809.171000",
          "105811.671000",
          "105814.671000",
          "105817.171000",
          "105819.671000",
          "105822.171000",
          "105824.671000",
          "105827.671000",
          "105830.171000",
          "105832.671000",
          "105835.171000",
          "105837.671000",
          "105840.671000",
          "105843.171000",
          "105845.671000",
          "105848.171000",
          "105850.671000",
          "105853.671000",
          "105856.171000",
          "105858.671000",
          "105901.171000",
          "105903.671000",
          "105906.671000",
          "105909.171000",
          "105911.671000",
          "105914.171000",
          "105916.671000",
          "105919.671000",
          "105922.171000",
          "105924.671000",
          "105927.171000",
          "105929.671000",
          "105932.671000",
          "105935.171000",
          "105937.671000",
          "105940.171000",
          "105942.671000",
          "105945.671000",
          "105948.171000",
          "105950.671000",
          "105953.171000",
          "105955.671000",
          "105958.218000"
        ],
        "InstanceNumber": [
          1,
          2,
          3,
          4,
          5,
          6,
          7,
          8,
          9,
          10,
          11,
          12,
          13,
          14,
          15,
          16,
          17,
          18,
          19,
          20,
          21,
          22,
          23,
          24,
          25,
          26,
          27,
          28,
          29,
          30,
          31,
          32,
          33,
          34,
          35,
          36,
          37,
          38,
          39,
          40,
          41,
          42,
          43,
          44,
          45,
          46,
          47,
          48,
          49,
          50,
          51,
          52,
          53,
          54,
          55,
          56,
          57,
          58,
          59,
          60,
          61,
          62,
          63,
          64,
          65,
          66,
          67,
          68,
          69,
          70,
          71,
          72,
          73,
          74,
          75,
          76,
          77,
          78,
          79,
          80,
          81,
          82,
          83,
          84,
          85,
          86,
          87,
          88,
          89,
          90,
          91,
          92,
          93,
          94,
          95,
          96,
          97,
          98,
          99,
          100,
          101,
          102,
          103,
          104,
          105,
          106,
          107,
          108,
          109,
          110,
          111,
          112,
          113,
          114,
          115,
          116,
          117,
          118,
          119,
          120,
          121,
          122,
          123,
          124,
          125,
          126,
          127,
          128,
          129,
          130,
          131,
          132,
          133,
          134,
          135,
          136,
          137,
          138,
          139,
          140,
          141,
          142,
          143,
          144,
          145,
          146,
          147,
          148,
          149,
          150
        ],
        "WindowCenter": [
          797.0,
          794.0,
          794.0,
          794.0,
          793.0,
          793.0,
          795.0,
          793.0,
          793.0,
          794.0,
          793.0,
          794.0,
          792.0,
          793.0,
          793.0,
          793.0,
          793.0,
          793.0,
          794.0,
          794.0,
          793.0,
          793.0,
          794.0,
          793.0,
          794.0,
          794.0,
          795.0,
          793.0,
          794.0,
          794.0,
          794.0,
          794.0,
          794.0,
          796.0,
          797.0,
          795.0,
          795.0,
          795.0,
          797.0,
          794.0,
          794.0,
          793.0,
          794.0,
          794.0,
          794.0,
          794.0,
          795.0,
          795.0,
          796.0,
          795.0,
          796.0,
          795.0,
          794.0,
          797.0,
          797.0,
          794.0,
          793.0,
          794.0,
          795.0,
          795.0,
          795.0,
          795.0,
          794.0,
          795.0,
          795.0,
          795.0,
          794.0,
          795.0,
          796.0,
          795.0,
          796.0,
          796.0,
          796.0,
          794.0,
          795.0,
          795.0,
          794.0,
          795.0,
          795.0,
          796.0,
          795.0,
          796.0,
          797.0,
          796.0,
          795.0,
          795.0,
          797.0,
          797.0,
          797.0,
          798.0,
          797.0,
          795.0,
          796.0,
          796.0,
          795.0,
          796.0,
          795.0,
          795.0,
          795.0,
          796.0,
          797.0,
          796.0,
          795.0,
          796.0,
          796.0,
          796.0,
          797.0,
          797.0,
          796.0,
          796.0,
          796.0,
          797.0,
          796.0,
          797.0,
          797.0,
          796.0,
          797.0,
          796.0,
          793.0,
          794.0,
          794.0,
          793.0,
          795.0,
          794.0,
          797.0,
          796.0,
          796.0,
          795.0,
          796.0,
          796.0,
          797.0,
          796.0,
          795.0,
          795.0,
          797.0,
          797.0,
          796.0,
          797.0,
          795.0,
          795.0,
          796.0,
          796.0,
          795.0,
          797.0,
          796.0,
          796.0,
          798.0,
          798.0,
          796.0,
          798.0
        ],
        "WindowWidth": [
          1784.0,
          1773.0,
          1773.0,
          1773.0,
          1769.0,
          1770.0,
          1776.0,
          1770.0,
          1768.0,
          1771.0,
          1770.0,
          1773.0,
          1767.0,
          1769.0,
          1768.0,
          1769.0,
          1770.0,
          1770.0,
          1771.0,
          1771.0,
          1769.0,
          1770.0,
          1773.0,
          1769.0,
          1773.0,
          1773.0,
          1775.0,
          1770.0,
          1773.0,
          1773.0,
          1772.0,
          1772.0,
          1771.0,
          1778.0,
          1780.0,
          1776.0,
          1774.0,
          1776.0,
          1780.0,
          1771.0,
          1771.0,
          1769.0,
          1771.0,
          1773.0,
          1772.0,
          1773.0,
          1776.0,
          1776.0,
          1777.0,
          1776.0,
          1777.0,
          1774.0,
          1772.0,
          1780.0,
          1782.0,
          1772.0,
          1770.0,
          1773.0,
          1775.0,
          1776.0,
          1776.0,
          1773.0,
          1773.0,
          1777.0,
          1776.0,
          1775.0,
          1772.0,
          1777.0,
          1779.0,
          1775.0,
          1777.0,
          1777.0,
          1778.0,
          1771.0,
          1775.0,
          1774.0,
          1772.0,
          1773.0,
          1774.0,
          1779.0,
          1776.0,
          1778.0,
          1780.0,
          1779.0,
          1774.0,
          1776.0,
          1780.0,
          1781.0,
          1782.0,
          1783.0,
          1779.0,
          1775.0,
          1777.0,
          1778.0,
          1775.0,
          1776.0,
          1775.0,
          1774.0,
          1775.0,
          1777.0,
          1779.0,
          1776.0,
          1775.0,
          1777.0,
          1777.0,
          1778.0,
          1780.0,
          1781.0,
          1779.0,
          1777.0,
          1778.0,
          1779.0,
          1776.0,
          1780.0,
          1782.0,
          1778.0,
          1779.0,
          1776.0,
          1768.0,
          1770.0,
          1771.0,
          1770.0,
          1774.0,
          1771.0,
          1780.0,
          1777.0,
          1777.0,
          1774.0,
          1776.0,
          1777.0,
          1780.0,
          1777.0,
          1776.0,
          1776.0,
          1780.0,
          1781.0,
          1778.0,
          1780.0,
          1775.0,
          1775.0,
          1779.0,
          1778.0,
          1775.0,
          1779.0,
          1778.0,
          1777.0,
          1783.0,
          1784.0,
          1777.0,
          1783.0
        ]
      },
      "slices": {}
    }
  },
  "dummy_trs": 0,
  "dvars_nstd": 79.6439329314765,
  "dvars_std": 1.0471346588590602,
  "dvars_vstd": 1.0042219686577183,
  "efc": 0.5591318579164745,
  "fber": 306.8919372558594,
  "fd_mean": 0.07705566705669159,
  "fd_num": 0,
  "fd_perc": 0.0,
  "fwhm_avg": 3.059516084586722,
  "fwhm_x": 2.8075608473969056,
  "fwhm_y": 2.8543965734924046,
  "fwhm_z": 3.5165908328708557,
  "gcor": 0.00260445,
  "gsr_x": -0.0010010047117248178,
  "gsr_y": 0.037660032510757446,
  "provenance": {
    "md5sum": "b7c3cc3d61a73c821e64fa4427052559",
    "settings": {
      "fd_thres": 0.2,
      "testing": false
    },
    "software": "mriqc",
    "version": "23.0.1",
    "webapi_port": null,
    "webapi_url": "https://mriqc.nimh.nih.gov/api/v1"
  },
  "size_t": 150,
  "size_x": 188,
  "size_y": 188,
  "size_z": 46,
  "snr": 1.9558675961890295,
  "spacing_tr": 2.5999999046325684,
  "spacing_x": 1.0957447290420532,
  "spacing_y": 1.0957447290420532,
  "spacing_z": 1.100000023841858,
  "summary_bg_k": 65.27447719211511,
  "summary_bg_mad": 20.331418121470627,
  "summary_bg_mean": 70.95588684082031,
  "summary_bg_median": 42.86000061035156,
  "summary_bg_n": 1047721.0,
  "summary_bg_p05": 26.32666778564453,
  "summary_bg_p95": 203.06666564941406,
