{
  "aor": 0.0006258666666666666,
  "aqi": 0.012184484666666667,
  "bids_meta": {
    "AcquisitionMatrixPE": 188,
    "AcquisitionNumber": 1,
    "AcquisitionTime": "09:52:53.900000",
    "BandwidthPerPixelPhaseEncode": 19.46,
    "BaseResolution": 188,
    "ConversionSoftware": "dcm2niix",
    "ConversionSoftwareVersion": "v1.0.20180606 GCC4.8.5",
    "DelayTime": 1.2,
    "DerivedVendorReportedEchoSpacing": 0.000820013,
    "DeviceSerialNumber": "18930",
    "DwellTime": 1.9e-06,
    "EchoTime": 0.02,
    "EffectiveEchoSpacing": 0.000273338,
    "FlipAngle": 75,
    "ImageComments": "Unaliased_MB2_PE2",
    "ImageOrientationPatientDICOM": [
      0.997079,
      0.0533282,
      -0.0546808,
      -0.0647723,
      0.210966,
      -0.975345
    ],
    "ImageType": [
      "ORIGINAL",
      "PRIMARY",
      "M",
      "MB",
      "ND",
      "MOSAIC"
    ],
    "InPlanePhaseEncodingDirectionDICOM": "COL",
    "InstitutionAddress": "Oxfordlaan_55_Maastricht_12C0A2_Limburg_NL_6229_EV",
    "InstitutionName": "Scannexus",
    "InstitutionalDepartmentName": "MRI_7T",
    "MRAcquisitionType": "2D",
    "MagneticFieldStrength": 6.98,
    "Manufacturer": "Siemens",
    "ManufacturersModelName": "Investigational_Device_7T",
    "Modality": "MR",
    "MultibandAccelerationFactor": 2,
    "ParallelReductionFactorInPlane": 3,
    "PartialFourier": 0.75,
    "PatientPosition": "HFS",
    "PercentPhaseFOV": 100,
    "PhaseEncodingDirection": "j",
    "PhaseEncodingSteps": 141,
    "PhaseResolution": 1,
    "PixelBandwidth": 1400,
    "ProcedureStepDescription": "FeDem_Faruk",
    "ProtocolName": "cmrr_mbep2d_bold_AP_run6",
    "PulseSequenceDetails": "%CustomerSeq%_cmrr_mbep2d_bold",
    "ReceiveCoilName": "32Ch_Head_7T",
    "ReconMatrixPE": 188,
    "RepetitionTime": 2.6,
    "SAR": 0.037762,
    "ScanOptions": "PFP_FS",
    "ScanningSequence": "EP",
    "SequenceName": "epfid2d1_188",
    "SequenceVariant": "SK_SS",
    "SeriesDescription": "cmrr_mbep2d_bold_AP_run6",
    "SeriesNumber": 26,
    "ShimSetting": [
      56,
      -76,
      427,
      415,
      -84,
      461,
      -48,
      47
    ],
    "SliceThickness": 1.1,
    "SliceTiming": [
      0,
      0.7325,
      0.06,
      0.795,
      0.1225,
      0.855,
      0.1825,
      0.9175,
      0.245,
      0.9775,
      0.305,
      1.04,
      0.3675,
      1.1,
      0.4275,
      1.16,
      0.49,
      1.2225,
      0.55,
      1.2825,
      0.61,
      1.345,
      0.6725,
      0,
      0.7325,
      0.06,
      0.795,
      0.1225,
      0.855,
      0.1825,
      0.9175,
      0.245,
      0.9775,
      0.305,
      1.04,
      0.3675,
      1.1,
      0.4275,
      1.16,
      0.49,
      1.2225,
      0.55,
      1.2825,
      0.61,
      1.345,
      0.6725
    ],
    "SoftwareVersions": "syngo_MR_B17",
    "SpacingBetweenSlices": 1.1,
    "StationName": "MRC18930",
    "TaskName": "auditory",
    "TotalReadoutTime": 0.0511141,
    "TxRefAmp": 170,
    "dataset": "ds001942",
    "dcmmeta_affine": [
      [
        -1.0925438404083252,
        -0.07097391039133072,
        0.04452543705701828,
        105.0876693725586
      ],
      [
        -0.0584341399371624,
        0.2311643660068512,
        -1.0736415386199951,
        29.283571243286133
      ],
      [
        -0.05991622060537338,
        1.068729281425476,
        0.23518379032611847,
        -111.51782989501953
      ],
      [
        0.0,
        0.0,
        0.0,
        1.0
      ]
    ],
    "dcmmeta_reorient_transform": [
      [
        0.0,
        -1.0,
        0.0,
        187.0
      ],
      [
        1.0,
        0.0,
        0.0,
        0.0
      ],
      [
        0.0,
        0.0,
        1.0,
        0.0
      ],
      [
        0.0,
        0.0,
        0.0,
        1.0
      ]
    ],
    "dcmmeta_shape": [
      188,
      188,
      46,
      150
    ],
    "dcmmeta_slice_dim": 2,
    "dcmmeta_version": 0.6,
    "global": {
      "const": {
        "AcquisitionMatrix": [
          188,
          0,
          0,
          188
        ],
        "AngioFlag": "N",
        "BitsAllocated": 16,
        "BitsStored": 12,
        "Columns": 1316,
        "EchoNumbers": 1,
        "EchoTime": 20.0,
        "EchoTrainLength": 1,
        "FlipAngle": 75.0,
        "HighBit": 11,
        "ImageOrientationPatient": [
          0.9970787865409,
          0.05332824067929,
          -0.0546808209171,
          -0.0647723057413,
          0.21096552709947,
          -0.9753451157332
        ],
        "ImagePositionPatient": [
          -667.98097657726,
          -235.84486219037,
          724.89059814474
        ],
        "ImageType": [
          "ORIGINAL",
          "PRIMARY",
          "M",
          "MB",
          "ND",
          "MOSAIC"
        ],
        "ImagedNucleus": "1H",
        "ImagingFrequency": 297.205722,
        "InPlanePhaseEncodingDirection": "COL",
        "LargestImagePixelValue": 4095,
        "MRAcquisitionType": "2D",
        "MagneticFieldStrength": 6.98,
        "Manufacturer": "SIEMENS",
        "ManufacturerModelName": "Investigational_Device_7T",
        "Modality": "MR",
        "NumberOfAverages": 1.0,
        "NumberOfPhaseEncodingSteps": 141,
        "PercentPhaseFieldOfView": 100.0,
        "PercentSampling": 100.0,
        "PerformedProcedureStepStartTime": "081242.234000",
        "PhotometricInterpretation": "MONOCHROME2",
        "PixelBandwidth": 1400.0,
        "PixelRepresentation": 0,
        "PixelSpacing": [
          1.0957447290421,
          1.0957447290421
        ],
        "ProtocolName": "cmrr_mbep2d_bold_AP_run6",
        "RepetitionTime": 2600.0,
        "Rows": 1316,
        "SAR": 0.03776198151326,
        "SamplesPerPixel": 1,
        "ScanOptions": [
          "PFP",
          "FS"
        ],
        "ScanningSequence": "EP",
        "SequenceName": "epfid2d1_188",
        "SequenceVariant": [
          "SK",
          "SS"
        ],
        "SeriesDescription": "cmrr_mbep2d_bold_AP_run6",
        "SeriesNumber": 26,
        "SeriesTime": "095303.296000",
        "SliceLocation": -48.171062132454,
        "SliceThickness": 1.1000000238419,
        "SmallestImagePixelValue": 0,
        "SoftwareVersions": "syngo MR B17",
        "SpacingBetweenSlices": 1.0999999909105,
        "SpecificCharacterSet": "ISO_IR 100",
        "StudyID": "1",
        "StudyTime": "081242.187000",
        "TransmitCoilName": "32Ch_Head_7T",
        "VariableFlipAngleFlag": "N",
        "WindowCenterWidthExplanation": "Algo1",
        "dBdt": 0.0
      },
      "slices": {}
    },
    "modality": "bold",
    "run_id": 5,
    "session_id": "SES02",
    "subject_id": "S01",
    "task_id": "auditory",
    "time": {
      "samples": {
        "AcquisitionNumber": [
          1,
          2,
          3,
          4,
          5,
          6,
          7,
          8,
          9,
          10,
          11,
          12,
          13,
          14,
          15,
          16,
          17,
          18,
          19,
          20,
          21,
          22,
          23,
          24,
          25,
          26,
          27,
          28,
          29,
          30,
          31,
          32,
          33,
          34,
          35,
          36,
          37,
          38,
          39,
          40,
          41,
          42,
          43,
          44,
          45,
          46,
          47,
          48,
          49,
          50,
          51,
          52,
          53,
          54,
          55,
          56,
          57,
          58,
          59,
          60,
          61,
          62,
          63,
          64,
          65,
          66,
          67,
          68,
          69,
          70,
          71,
          72,
          73,
          74,
          75,
          76,
          77,
          78,
          79,
          80,
          81,
          82,
          83,
          84,
          85,
          86,
          87,
          88,
          89,
          90,
          91,
          92,
          93,
          94,
          95,
          96,
          97,
          98,
          99,
          100,
          101,
          102,
          103,
          104,
          105,
          106,
          107,
          108,
          109,
          110,
          111,
          112,
          113,
          114,
          115,
          116,
          117,
          118,
          119,
          120,
          121,
          122,
          123,
          124,
          125,
          126,
          127,
          128,
          129,
          130,
          131,
          132,
          133,
          134,
          135,
          136,
          137,
          138,
          139,
          140,
          141,
          142,
          143,
          144,
          145,
          146,
          147,
          148,
          149,
          150
        ],
        "AcquisitionTime": [
          "095253.900000",
          "095256.510000",
          "095259.120000",
          "095301.732500",
          "095304.342500",
          "095306.952500",
          "095309.562500",
          "095312.172500",
          "095314.782500",
          "095317.395000",
          "095320.005000",
          "095322.615000",
          "095325.225000",
          "095327.835000",
          "095330.447500",
          "095333.057500",
          "095335.667500",
          "095338.277500",
          "095340.887500",
          "095343.497500",
          "095346.110000",
          "095348.720000",
          "095351.330000",
          "095353.940000",
          "095356.550000",
          "095359.160000",
          "095401.772500",
          "095404.382500",
          "095406.992500",
          "095409.602500",
          "095412.212500",
          "095414.825000",
          "095417.435000",
          "095420.045000",
          "095422.655000",
          "095425.265000",
          "095427.875000",
          "095430.487500",
          "095433.097500",
          "095435.707500",
          "095438.317500",
          "095440.927500",
          "095443.537500",
          "095446.150000",
          "095448.760000",
          "095451.370000",
          "095453.980000",
          "095456.590000",
          "095459.202500",
          "095501.812500",
          "095504.422500",
          "095507.032500",
          "095509.642500",
          "095512.252500",
          "095514.865000",
          "095517.475000",
          "095520.085000",
          "095522.695000",
          "095525.305000",
          "095527.915000",
          "095530.527500",
          "095533.137500",
          "095535.747500",
          "095538.357500",
          "095540.967500",
          "095543.580000",
          "095546.190000",
          "095548.800000",
          "095551.410000",
          "095554.020000",
          "095556.630000",
          "095559.242500",
          "095601.852500",
          "095604.462500",
          "095607.072500",
          "095609.682500",
          "095612.292500",
          "095614.905000",
          "095617.515000",
          "095620.125000",
          "095622.735000",
          "095625.345000",
          "095627.957500",
          "095630.567500",
          "095633.177500",
          "095635.787500",
          "095638.397500",
          "095641.007500",
          "095643.620000",
          "095646.230000",
          "095648.840000",
          "095651.450000",
          "095654.060000",
          "095656.670000",
          "095659.282500",
          "095701.892500",
          "095704.502500",
          "095707.112500",
          "095709.722500",
          "095712.335000",
          "095714.945000",
          "095717.555000",
          "095720.165000",
          "095722.775000",
          "095725.385000",
          "095727.997500",
          "095730.607500",
          "095733.217500",
          "095735.827500",
          "095738.437500",
          "095741.047500",
          "095743.660000",
          "095746.270000",
          "095748.880000",
          "095751.490000",
          "095754.100000",
          "095756.712500",
          "095759.322500",
          "095801.932500",
          "095804.542500",
          "095807.152500",
          "095809.762500",
          "095812.375000",
          "095814.985000",
          "095817.595000",
          "095820.205000",
          "095822.815000",
          "095825.425000",
          "095828.037500",
          "095830.647500",
          "095833.257500",
          "095835.867500",
          "095838.477500",
          "095841.090000",
          "095843.700000",
          "095846.310000",
          "095848.920000",
          "095851.530000",
          "095854.140000",
          "095856.752500",
          "095859.362500",
          "095901.972500",
          "095904.582500",
          "095907.192500",
          "095909.802500",
          "095912.415000",
          "095915.025000",
          "095917.635000",
          "095920.245000",
          "095922.855000"
        ],
        "ContentTime": [
          "095303.296000",
          "095304.296000",
          "095304.296000",
          "095306.296000",
          "095309.296000",
          "095311.796000",
          "095314.296000",
          "095316.796000",
          "095319.296000",
          "095322.296000",
          "095324.796000",
          "095327.296000",
          "095329.796000",
          "095332.296000",
          "095335.296000",
          "095337.796000",
          "095340.296000",
          "095342.796000",
          "095345.296000",
          "095348.296000",
          "095350.796000",
          "095353.296000",
          "095355.796000",
          "095358.296000",
          "095401.296000",
          "095403.796000",
          "095406.296000",
          "095408.796000",
          "095411.296000",
          "095414.296000",
          "095416.796000",
          "095419.296000",
          "095421.796000",
          "095424.296000",
          "095427.296000",
          "095429.796000",
          "095432.296000",
          "095434.796000",
          "095437.296000",
          "095440.296000",
          "095442.796000",
          "095445.296000",
          "095447.796000",
          "095450.796000",
          "095453.296000",
          "095455.796000",
          "095458.296000",
          "095500.796000",
          "095503.296000",
          "095506.296000",
          "095508.796000",
          "095511.296000",
          "095513.796000",
          "095516.296000",
          "095519.296000",
          "095521.796000",
          "095524.296000",
          "095526.796000",
          "095529.296000",
          "095532.296000",
          "095534.796000",
          "095537.296000",
          "095539.796000",
          "095542.296000",
          "095545.296000",
          "095547.796000",
          "095550.296000",
          "095552.796000",
          "095555.296000",
          "095558.296000",
          "095600.796000",
          "095603.296000",
          "095605.796000",
          "095608.296000",
          "095611.296000",
          "095613.796000",
          "095616.296000",
          "095618.796000",
          "095621.296000",
          "095624.296000",
          "095626.796000",
          "095629.296000",
          "095631.796000",
          "095634.296000",
          "095637.296000",
          "095639.796000",
          "095642.296000",
          "095644.796000",
          "095647.296000",
          "095650.296000",
          "095652.796000",
          "095655.296000",
          "095657.796000",
          "095700.296000",
          "095703.296000",
          "095705.796000",
          "095708.296000",
          "095710.796000",
          "095713.296000",
          "095716.296000",
          "095718.796000",
          "095721.296000",
          "095723.796000",
          "095726.296000",
          "095729.296000",
          "095731.796000",
          "095734.296000",
          "095736.796000",
          "095739.296000",
          "095742.296000",
          "095744.796000",
          "095747.296000",
          "095749.796000",
          "095752.296000",
          "095755.296000",
          "095757.796000",
          "095800.296000",
          "095802.796000",
          "095805.296000",
          "095808.296000",
          "095810.796000",
          "095813.296000",
          "095815.796000",
          "095818.296000",
          "095821.296000",
          "095823.796000",
          "095826.296000",
          "095828.796000",
          "095831.296000",
          "095834.296000",
          "095836.796000",
          "095839.296000",
          "095841.796000",
          "095844.296000",
          "095847.296000",
          "095849.796000",
          "095852.296000",
          "095854.796000",
          "095857.296000",
          "095900.296000",
          "095902.796000",
          "095905.296000",
          "095907.796000",
          "095910.796000",
          "095913.296000",
          "095915.796000",
          "095918.296000",
          "095920.796000",
          "095923.296000",
          "095925.843000"
        ],
        "InstanceCreationTime": [
          "095303.296000",
          "095304.296000",
          "095304.296000",
          "095306.296000",
          "095309.296000",
          "095311.796000",
          "095314.296000",
          "095316.796000",
          "095319.296000",
          "095322.296000",
          "095324.796000",
          "095327.296000",
          "095329.796000",
          "095332.296000",
          "095335.296000",
          "095337.796000",
          "095340.296000",
          "095342.796000",
          "095345.296000",
          "095348.296000",
          "095350.796000",
          "095353.296000",
          "095355.796000",
          "095358.296000",
          "095401.296000",
          "095403.796000",
          "095406.296000",
          "095408.796000",
          "095411.296000",
          "095414.296000",
          "095416.796000",
          "095419.296000",
          "095421.796000",
          "095424.296000",
          "095427.296000",
          "095429.796000",
          "095432.296000",
          "095434.796000",
          "095437.296000",
          "095440.296000",
          "095442.796000",
          "095445.296000",
          "095447.796000",
          "095450.796000",
          "095453.296000",
          "095455.796000",
          "095458.296000",
          "095500.796000",
          "095503.296000",
          "095506.296000",
          "095508.796000",
          "095511.296000",
          "095513.796000",
          "095516.296000",
          "095519.296000",
          "095521.796000",
          "095524.296000",
          "095526.796000",
          "095529.296000",
          "095532.296000",
          "095534.796000",
          "095537.296000",
          "095539.796000",
          "095542.296000",
          "095545.296000",
          "095547.796000",
          "095550.296000",
          "095552.796000",
          "095555.296000",
          "095558.296000",
          "095600.796000",
          "095603.296000",
          "095605.796000",
          "095608.296000",
          "095611.296000",
          "095613.796000",
          "095616.296000",
          "095618.796000",
          "095621.296000",
          "095624.296000",
          "095626.796000",
          "095629.296000",
          "095631.796000",
          "095634.296000",
          "095637.296000",
          "095639.796000",
          "095642.296000",
          "095644.796000",
          "095647.296000",
          "095650.296000",
          "095652.796000",
          "095655.296000",
          "095657.796000",
          "095700.296000",
          "095703.296000",
          "095705.796000",
          "095708.296000",
          "095710.796000",
          "095713.296000",
          "095716.296000",
          "095718.796000",
          "095721.296000",
          "095723.796000",
          "095726.296000",
          "095729.296000",
          "095731.796000",
          "095734.296000",
          "095736.796000",
          "095739.296000",
          "095742.296000",
          "095744.796000",
          "095747.296000",
          "095749.796000",
          "095752.296000",
          "095755.296000",
          "095757.796000",
          "095800.296000",
          "095802.796000",
          "095805.296000",
          "095808.296000",
          "095810.796000",
          "095813.296000",
          "095815.796000",
          "095818.296000",
          "095821.296000",
          "095823.796000",
          "095826.296000",
          "095828.796000",
          "095831.296000",
          "095834.296000",
          "095836.796000",
          "095839.296000",
          "095841.796000",
          "095844.296000",
          "095847.296000",
          "095849.796000",
          "095852.296000",
          "095854.796000",
          "095857.296000",
          "095900.296000",
          "095902.796000",
          "095905.296000",
          "095907.796000",
          "095910.796000",
          "095913.296000",
          "095915.796000",
          "095918.296000",
          "095920.796000",
          "095923.296000",
          "095925.843000"
        ],
        "InstanceNumber": [
          1,
          2,
          3,
          4,
          5,
          6,
          7,
          8,
          9,
          10,
          11,
          12,
          13,
          14,
          15,
          16,
          17,
          18,
          19,
          20,
          21,
          22,
          23,
          24,
          25,
          26,
          27,
          28,
          29,
          30,
          31,
          32,
          33,
          34,
          35,
          36,
          37,
          38,
          39,
          40,
          41,
          42,
          43,
          44,
          45,
          46,
          47,
          48,
          49,
          50,
          51,
          52,
          53,
          54,
          55,
          56,
          57,
          58,
          59,
          60,
          61,
          62,
          63,
          64,
          65,
          66,
          67,
          68,
          69,
          70,
          71,
          72,
          73,
          74,
          75,
          76,
          77,
          78,
          79,
          80,
          81,
          82,
          83,
          84,
          85,
          86,
          87,
          88,
          89,
          90,
          91,
          92,
          93,
          94,
          95,
          96,
          97,
          98,
          99,
          100,
          101,
          102,
          103,
          104,
          105,
          106,
          107,
          108,
          109,
          110,
          111,
          112,
          113,
          114,
          115,
          116,
          117,
          118,
          119,
          120,
          121,
          122,
          123,
          124,
          125,
          126,
          127,
          128,
          129,
          130,
          131,
          132,
          133,
          134,
          135,
          136,
          137,
          138,
          139,
          140,
          141,
          142,
          143,
          144,
          145,
          146,
          147,
          148,
          149,
          150
        ],
        "WindowCenter": [
          798.0,
          795.0,
          795.0,
          794.0,
          794.0,
          793.0,
          794.0,
          795.0,
          795.0,
          795.0,
          795.0,
          795.0,
          796.0,
          795.0,
          795.0,
          795.0,
          795.0,
          795.0,
          797.0,
          795.0,
          795.0,
          797.0,
          796.0,
          795.0,
          795.0,
          796.0,
          796.0,
          795.0,
          794.0,
          795.0,
          795.0,
          796.0,
          795.0,
          795.0,
          796.0,
          796.0,
          796.0,
          798.0,
          796.0,
          797.0,
          795.0,
          794.0,
          796.0,
          796.0,
          796.0,
          794.0,
          795.0,
          797.0,
          797.0,
          796.0,
          797.0,
          796.0,
          795.0,
          795.0,
          796.0,
          798.0,
          795.0,
          794.0,
          795.0,
          795.0,
          796.0,
          796.0,
          796.0,
          796.0,
          797.0,
          795.0,
          795.0,
          797.0,
          798.0,
          796.0,
          795.0,
          796.0,
          795.0,
          797.0,
          795.0,
          795.0,
          794.0,
          796.0,
          796.0,
          797.0,
          798.0,
          797.0,
          796.0,
          795.0,
          797.0,
          797.0,
          796.0,
          797.0,
          797.0,
          797.0,
          797.0,
          797.0,
          796.0,
          796.0,
          796.0,
          795.0,
          796.0,
          797.0,
          797.0,
          797.0,
          797.0,
          797.0,
          798.0,
          798.0,
          797.0,
          796.0,
          796.0,
          796.0,
          799.0,
          797.0,
          796.0,
          797.0,
          796.0,
          796.0,
          796.0,
          797.0,
          797.0,
          797.0,
          797.0,
          797.0,
          798.0,
          797.0,
          797.0,
          798.0,
          797.0,
          797.0,
          798.0,
          796.0,
          795.0,
          796.0,
          798.0,
          796.0,
          796.0,
          797.0,
          797.0,
          798.0,
          797.0,
          797.0,
          797.0,
          796.0,
          798.0,
          797.0,
          796.0,
          796.0,
          797.0,
          797.0,
          797.0,
          797.0,
          795.0,
          797.0
        ],
        "WindowWidth": [
          1785.0,
          1778.0,
          1776.0,
          1773.0,
          1774.0,
          1771.0,
          1772.0,
          1776.0,
          1775.0,
          1778.0,
          1775.0,
          1776.0,
          1779.0,
          1777.0,
          1777.0,
          1776.0,
          1775.0,
          1777.0,
          1781.0,
          1777.0,
          1777.0,
          1781.0,
          1781.0,
          1776.0,
          1775.0,
          1780.0,
          1780.0,
          1776.0,
          1774.0,
          1776.0,
          1778.0,
          1779.0,
          1777.0,
          1777.0,
          1780.0,
          1780.0,
          1779.0,
          1785.0,
          1781.0,
          1783.0,
          1777.0,
          1774.0,
          1778.0,
          1779.0,
          1779.0,
          1774.0,
          1778.0,
          1781.0,
          1782.0,
          1781.0,
          1782.0,
          1780.0,
          1775.0,
          1776.0,
          1778.0,
          1786.0,
          1774.0,
          1772.0,
          1775.0,
          1776.0,
          1779.0,
          1780.0,
          1778.0,
          1778.0,
          1781.0,
          1777.0,
          1776.0,
          1782.0,
          1786.0,
          1779.0,
          1775.0,
          1779.0,
          1777.0,
          1782.0,
          1777.0,
          1775.0,
          1774.0,
          1778.0,
          1779.0,
          1782.0,
          1785.0,
          1781.0,
          1779.0,
          1777.0,
          1781.0,
          1783.0,
          1779.0,
          1781.0,
          1783.0,
          1782.0,
          1782.0,
          1781.0,
          1777.0,
          1778.0,
          1779.0,
          1776.0,
          1779.0,
          1781.0,
          1781.0,
          1782.0,
          1782.0,
          1784.0,
          1785.0,
          1786.0,
          1782.0,
          1780.0,
          1780.0,
          1781.0,
          1788.0,
          1782.0,
          1779.0,
          1780.0,
          1778.0,
          1778.0,
          1780.0,
          1783.0,
          1782.0,
          1782.0,
          1781.0,
          1784.0,
          1785.0,
          1782.0,
          1783.0,
          1785.0,
          1782.0,
          1783.0,
          1787.0,
          1780.0,
          1774.0,
          1779.0,
          1785.0,
          1780.0,
          1779.0,
          1782.0,
          1783.0,
          1784.0,
          1781.0,
          1783.0,
          1783.0,
          1780.0,
          1784.0,
          1781.0,
          1780.0,
          1780.0,
          1782.0,
          1783.0,
          1782.0,
          1781.0,
          1775.0,
          1781.0
        ]
      },
      "slices": {}
    }
  },
  "dummy_trs": 0,
  "dvars_nstd": 78.53487826348997,
  "dvars_std": 1.0609924811409395,
  "dvars_vstd": 1.0189556186577187,
  "efc": 0.5569478204302838,
  "fber": 314.7961730957031,
  "fd_mean": 0.07640977371020272,
  "fd_num": 1,
  "fd_perc": 0.6666666666666666,
  "fwhm_avg": 3.022138162805357,
  "fwhm_x": 2.7931870616213,
  "fwhm_y": 2.8247911379012516,
  "fwhm_z": 3.4484362888935203,
  "gcor": 0.00194206,
  "gsr_x": -0.00037446091300807893,
  "gsr_y": 0.03447206690907478,
  "provenance": {
    "md5sum": "8abb9fd0390fc75b3c65ef0ca09c9c5e",
    "settings": {
      "fd_thres": 0.2,
      "testing": false
    },
    "software": "mriqc",
    "version": "23.0.1",
    "webapi_port": null,
    "webapi_url": "https://mriqc.nimh.nih.gov/api/v1"
  },
  "size_t": 150,
  "size_x": 188,
  "size_y": 188,
  "size_z": 46,
  "snr": 1.9631987246919587,
  "spacing_tr": 2.5999999046325684,
  "spacing_x": 1.0957447290420532,
  "spacing_y": 1.0957447290420532,
  "spacing_z": 1.100000023841858,
  "summary_bg_k": 72.56454006104413,
  "summary_bg_mad": 19.70872224874539,
  "summary_bg_mean": 69.30577087402344,
  "summary_bg_median": 42.586666107177734,
  "summary_bg_n": 1048024.0,
  "summary_bg_p05": 26.393333435058594,
  "summary_bg_p95": 195.2656776428221,
