{
  "aor": 0.0006928240740740741,
  "aqi": 0.012494389814814814,
  "bids_meta": {
    "AcquisitionMatrixPE": 188,
    "AcquisitionNumber": 1,
    "AcquisitionTime": "18:56:7.182500",
    "BandwidthPerPixelPhaseEncode": 19.46,
    "BaseResolution": 188,
    "ConversionSoftware": "dcm2niix",
    "ConversionSoftwareVersion": "v1.0.20180606 GCC4.8.5",
    "DelayTime": 1.2,
    "DerivedVendorReportedEchoSpacing": 0.000820013,
    "DeviceSerialNumber": "18930",
    "DwellTime": 1.9e-06,
    "EchoTime": 0.02,
    "EffectiveEchoSpacing": 0.000273338,
    "FlipAngle": 80,
    "ImageComments": "Unaliased_MB2_PE2",
    "ImageOrientationPatientDICOM": [
      0.998487,
      0.0489497,
      -0.0250718,
      -0.0348181,
      0.209744,
      -0.977136
    ],
    "ImageType": [
      "ORIGINAL",
      "PRIMARY",
      "M",
      "MB",
      "ND",
      "MOSAIC"
    ],
    "InPlanePhaseEncodingDirectionDICOM": "COL",
    "InstitutionAddress": "Oxfordlaan_55_Maastricht_Limburg_NL_6229_EV",
    "InstitutionName": "Scannexus",
    "InstitutionalDepartmentName": "MRI_7T",
    "MRAcquisitionType": "2D",
    "MagneticFieldStrength": 6.98,
    "Manufacturer": "Siemens",
    "ManufacturersModelName": "Investigational_Device_7T",
    "Modality": "MR",
    "MultibandAccelerationFactor": 2,
    "ParallelReductionFactorInPlane": 3,
    "PartialFourier": 0.75,
    "PatientPosition": "HFS",
    "PercentPhaseFOV": 100,
    "PhaseEncodingDirection": "j",
    "PhaseEncodingSteps": 141,
    "PhaseResolution": 1,
    "PixelBandwidth": 1400,
    "ProcedureStepDescription": "FeDem_fMRI",
    "ProtocolName": "cmrr_mbep2d_bold_AP_run4",
    "PulseSequenceDetails": "%CustomerSeq%_cmrr_mbep2d_bold",
    "ReceiveCoilName": "32Ch_Head_7T",
    "ReconMatrixPE": 188,
    "RepetitionTime": 2.6,
    "SAR": 0.0950827,
    "ScanOptions": "PFP_FS",
    "ScanningSequence": "EP",
    "SequenceName": "epfid2d1_188",
    "SequenceVariant": "SK_SS",
    "SeriesDescription": "cmrr_mbep2d_bold_AP_run4",
    "SeriesNumber": 13,
    "ShimSetting": [
      83,
      -18,
      483,
      568,
      -170,
      372,
      397,
      176
    ],
    "SliceThickness": 1.1,
    "SliceTiming": [
      0,
      0.7325,
      0.06,
      0.7925,
      0.1225,
      0.855,
      0.1825,
      0.915,
      0.245,
      0.9775,
      0.305,
      1.0375,
      0.365,
      1.1,
      0.4275,
      1.16,
      0.4875,
      1.2225,
      0.55,
      1.2825,
      0.61,
      1.3425,
      0.6725,
      0,
      0.7325,
      0.06,
      0.7925,
      0.1225,
      0.855,
      0.1825,
      0.915,
      0.245,
      0.9775,
      0.305,
      1.0375,
      0.365,
      1.1,
      0.4275,
      1.16,
      0.4875,
      1.2225,
      0.55,
      1.2825,
      0.61,
      1.3425,
      0.6725
    ],
    "SoftwareVersions": "syngo_MR_B17",
    "SpacingBetweenSlices": 1.1,
    "StationName": "MRC18930",
    "TaskName": "auditory",
    "TotalReadoutTime": 0.0511141,
    "TxRefAmp": 250,
    "dataset": "ds001942",
    "dcmmeta_affine": [
      [
        -1.0940862894058228,
        -0.03815179318189621,
        0.046828996390104294,
        101.74381256103516
      ],
      [
        -0.053636323660612106,
        0.22982586920261383,
        -1.0741831064224243,
        28.606107711791992
      ],
      [
        -0.027472274377942085,
        1.0706918239593506,
        0.23224392533302307,
        -113.16610717773438
      ],
      [
        0.0,
        0.0,
        0.0,
        1.0
      ]
    ],
    "dcmmeta_reorient_transform": [
      [
        0.0,
        -1.0,
        0.0,
        187.0
      ],
      [
        1.0,
        0.0,
        0.0,
        0.0
      ],
      [
        0.0,
        0.0,
        1.0,
        0.0
      ],
      [
        0.0,
        0.0,
        0.0,
        1.0
      ]
    ],
    "dcmmeta_shape": [
      188,
      188,
      46,
      216
    ],
    "dcmmeta_slice_dim": 2,
    "dcmmeta_version": 0.6,
    "global": {
      "const": {
        "AcquisitionMatrix": [
          188,
          0,
          0,
          188
        ],
        "AngioFlag": "N",
        "BitsAllocated": 16,
        "BitsStored": 12,
        "Columns": 1316,
        "EchoNumbers": 1,
        "EchoTime": 20.0,
        "EchoTrainLength": 1,
        "FlipAngle": 80.0,
        "HighBit": 11,
        "ImageOrientationPatient": [
          0.99848652333588,
          0.04894965136422,
          -0.0250717839005,
          -0.0348181392958,
          0.20974398973716,
          -0.9771362013277
        ],
        "ImagePositionPatient": [
          -690.15651702401,
          -231.45622234465,
          706.41783103294
        ],
        "ImageType": [
          "ORIGINAL",
          "PRIMARY",
          "M",
          "MB",
          "ND",
          "MOSAIC"
        ],
        "ImagedNucleus": "1H",
        "ImagingFrequency": 297.205596,
        "InPlanePhaseEncodingDirection": "COL",
        "LargestImagePixelValue": 4095,
        "MRAcquisitionType": "2D",
        "MagneticFieldStrength": 6.98,
        "Manufacturer": "SIEMENS",
        "ManufacturerModelName": "Investigational_Device_7T",
        "Modality": "MR",
        "NumberOfAverages": 1.0,
        "NumberOfPhaseEncodingSteps": 141,
        "PercentPhaseFieldOfView": 100.0,
        "PercentSampling": 100.0,
        "PerformedProcedureStepStartTime": "175244.656000",
        "PhotometricInterpretation": "MONOCHROME2",
        "PixelBandwidth": 1400.0,
        "PixelRepresentation": 0,
        "PixelSpacing": [
          1.0957447290421,
          1.0957447290421
        ],
        "ProtocolName": "cmrr_mbep2d_bold_AP_run4",
        "RepetitionTime": 2600.0,
        "Rows": 1316,
        "SAR": 0.09508269985866,
        "SamplesPerPixel": 1,
        "ScanOptions": [
          "PFP",
          "FS"
        ],
        "ScanningSequence": "EP",
        "SequenceName": "epfid2d1_188",
        "SequenceVariant": [
          "SK",
          "SS"
        ],
        "SeriesDescription": "cmrr_mbep2d_bold_AP_run4",
        "SeriesNumber": 13,
        "SeriesTime": "185714.906000",
        "SliceLocation": -47.496170282791,
        "SliceThickness": 1.1000000238419,
        "SmallestImagePixelValue": 0,
        "SoftwareVersions": "syngo MR B17",
        "SpacingBetweenSlices": 1.0999998170913,
        "SpecificCharacterSet": "ISO_IR 100",
        "StudyID": "1",
        "StudyTime": "175244.609000",
        "TransmitCoilName": "32Ch_Head_7T",
        "VariableFlipAngleFlag": "N",
        "WindowCenterWidthExplanation": "Algo1",
        "dBdt": 0.0
      },
      "slices": {}
    },
    "modality": "bold",
    "run_id": 4,
    "session_id": "SES05",
    "subject_id": "S09",
    "task_id": "auditory",
    "time": {
      "samples": {
        "AcquisitionNumber": [
          1,
          2,
          3,
          4,
          5,
          6,
          7,
          8,
          9,
          10,
          11,
          12,
          13,
          14,
          15,
          16,
          17,
          18,
          19,
          20,
          21,
          22,
          23,
          24,
          25,
          26,
          27,
          28,
          29,
          30,
          31,
          32,
          33,
          34,
          35,
          36,
          37,
          38,
          39,
          40,
          41,
          42,
          43,
          44,
          45,
          46,
          47,
          48,
          49,
          50,
          51,
          52,
          53,
          54,
          55,
          56,
          57,
          58,
          59,
          60,
          61,
          62,
          63,
          64,
          65,
          66,
          67,
          68,
          69,
          70,
          71,
          72,
          73,
          74,
          75,
          76,
          77,
          78,
          79,
          80,
          81,
          82,
          83,
          84,
          85,
          86,
          87,
          88,
          89,
          90,
          91,
          92,
          93,
          94,
          95,
          96,
          97,
          98,
          99,
          100,
          101,
          102,
          103,
          104,
          105,
          106,
          107,
          108,
          109,
          110,
          111,
          112,
          113,
          114,
          115,
          116,
          117,
          118,
          119,
          120,
          121,
          122,
          123,
          124,
          125,
          126,
          127,
          128,
          129,
          130,
          131,
          132,
          133,
          134,
          135,
          136,
          137,
          138,
          139,
          140,
          141,
          142,
          143,
          144,
          145,
          146,
          147,
          148,
          149,
          150,
          151,
          152,
          153,
          154,
          155,
          156,
          157,
          158,
          159,
          160,
          161,
          162,
          163,
          164,
          165,
          166,
          167,
          168,
          169,
          170,
          171,
          172,
          173,
          174,
          175,
          176,
          177,
          178,
          179,
          180,
          181,
          182,
          183,
          184,
          185,
          186,
          187,
          188,
          189,
          190,
          191,
          192,
          193,
          194,
          195,
          196,
          197,
          198,
          199,
          200,
          201,
          202,
          203,
          204,
          205,
          206,
          207,
          208,
          209,
          210,
          211,
          212,
          213,
          214,
          215,
          216
        ],
        "AcquisitionTime": [
          "185607.182500",
          "185609.792500",
          "185612.402500",
          "185615.012500",
          "185617.622500",
          "185620.235000",
          "185622.845000",
          "185625.455000",
          "185628.065000",
          "185630.675000",
          "185633.287500",
          "185635.897500",
          "185638.507500",
          "185641.117500",
          "185643.727500",
          "185646.337500",
          "185648.950000",
          "185651.560000",
          "185654.170000",
          "185656.780000",
          "185659.390000",
          "185702.000000",
          "185704.612500",
          "185707.222500",
          "185709.832500",
          "185712.442500",
          "185715.052500",
          "185717.665000",
          "185720.275000",
          "185722.885000",
          "185725.495000",
          "185728.105000",
          "185730.715000",
          "185733.327500",
          "185735.937500",
          "185738.547500",
          "185741.157500",
          "185743.767500",
          "185746.377500",
          "185748.990000",
          "185751.600000",
          "185754.210000",
          "185756.820000",
          "185759.430000",
          "185802.042500",
          "185804.652500",
          "185807.262500",
          "185809.872500",
          "185812.482500",
          "185815.092500",
          "185817.705000",
          "185820.315000",
          "185822.925000",
          "185825.535000",
          "185828.145000",
          "185830.755000",
          "185833.367500",
          "185835.977500",
          "185838.587500",
          "185841.197500",
          "185843.807500",
          "185846.420000",
          "185849.030000",
          "185851.640000",
          "185854.250000",
          "185856.860000",
          "185859.470000",
          "185902.082500",
          "185904.692500",
          "185907.302500",
          "185909.912500",
          "185912.522500",
          "185915.132500",
          "185917.745000",
          "185920.355000",
          "185922.965000",
          "185925.575000",
          "185928.185000",
          "185930.797500",
          "185933.407500",
          "185936.017500",
          "185938.627500",
          "185941.237500",
          "185943.847500",
          "185946.460000",
          "185949.070000",
          "185951.680000",
          "185954.290000",
          "185956.900000",
          "185959.510000",
          "190002.122500",
          "190004.732500",
          "190007.342500",
          "190009.952500",
          "190012.562500",
          "190015.175000",
          "190017.785000",
          "190020.395000",
          "190023.005000",
          "190025.615000",
          "190028.225000",
          "190030.837500",
          "190033.447500",
          "190036.057500",
          "190038.667500",
          "190041.277500",
          "190043.887500",
          "190046.500000",
          "190049.110000",
          "190051.720000",
          "190054.330000",
          "190056.940000",
          "190059.552500",
          "190102.162500",
          "190104.772500",
          "190107.382500",
          "190109.992500",
          "190112.602500",
          "190115.215000",
          "190117.825000",
          "190120.435000",
          "190123.045000",
          "190125.655000",
          "190128.265000",
          "190130.877500",
          "190133.487500",
          "190136.097500",
          "190138.707500",
          "190141.317500",
          "190143.930000",
          "190146.540000",
          "190149.150000",
          "190151.760000",
          "190154.370000",
          "190156.980000",
          "190159.592500",
          "190202.202500",
          "190204.812500",
          "190207.422500",
          "190210.032500",
          "190212.642500",
          "190215.255000",
          "190217.865000",
          "190220.475000",
          "190223.085000",
          "190225.695000",
          "190228.307500",
          "190230.917500",
          "190233.527500",
          "190236.137500",
          "190238.747500",
          "190241.357500",
          "190243.970000",
          "190246.580000",
          "190249.190000",
          "190251.800000",
          "190254.410000",
          "190257.020000",
          "190259.632500",
          "190302.242500",
          "190304.852500",
          "190307.462500",
          "190310.072500",
          "190312.685000",
          "190315.295000",
          "190317.905000",
          "190320.515000",
          "190323.125000",
          "190325.735000",
          "190328.347500",
          "190330.957500",
          "190333.567500",
          "190336.177500",
          "190338.787500",
          "190341.397500",
          "190344.010000",
          "190346.620000",
          "190349.230000",
          "190351.840000",
          "190354.450000",
          "190357.062500",
          "190359.672500",
          "190402.282500",
          "190404.892500",
          "190407.502500",
          "190410.112500",
          "190412.725000",
          "190415.335000",
          "190417.945000",
          "190420.555000",
          "190423.165000",
          "190425.775000",
          "190428.387500",
          "190430.997500",
          "190433.607500",
          "190436.217500",
          "190438.827500",
          "190441.440000",
          "190444.050000",
          "190446.660000",
          "190449.270000",
          "190451.880000",
          "190454.490000",
          "190457.102500",
          "190459.712500",
          "190502.322500",
          "190504.932500",
          "190507.542500",
          "190510.155000",
          "190512.765000",
          "190515.375000",
          "190517.985000",
          "190520.595000",
          "190523.205000",
          "190525.817500",
          "190528.427500"
        ],
        "ContentTime": [
          "185714.921000",
          "185714.937000",
          "185714.937000",
          "185714.937000",
          "185714.937000",
          "185714.937000",
          "185714.953000",
          "185714.953000",
          "185714.953000",
          "185714.953000",
          "185714.953000",
          "185714.953000",
          "185714.953000",
          "185714.968000",
          "185714.968000",
          "185714.968000",
          "185714.968000",
          "185714.968000",
          "185714.968000",
          "185714.968000",
          "185714.984000",
          "185714.984000",
          "185714.984000",
          "185714.984000",
          "185715.000000",
          "185814.890000",
          "185814.890000",
          "185814.890000",
          "185814.890000",
          "185814.906000",
          "185814.906000",
          "185814.906000",
          "185814.906000",
          "185814.906000",
          "185814.906000",
          "185814.906000",
          "185814.906000",
          "185814.921000",
          "185814.921000",
          "185814.921000",
          "185814.921000",
          "185814.921000",
          "185814.921000",
          "185814.937000",
          "185814.937000",
          "185814.937000",
          "185814.937000",
          "185814.937000",
          "185914.890000",
          "185914.890000",
          "185914.890000",
          "185914.890000",
          "185914.890000",
          "185914.906000",
          "185914.906000",
          "185914.906000",
          "185914.906000",
          "185914.906000",
          "185914.906000",
          "185914.906000",
          "185914.921000",
          "185914.921000",
          "185914.921000",
          "185914.921000",
          "185914.921000",
          "185914.921000",
          "185914.937000",
          "185914.937000",
          "185914.937000",
          "185914.937000",
          "185914.937000",
          "190014.890000",
          "190014.890000",
          "190014.906000",
          "190014.906000",
          "190014.906000",
          "190014.906000",
          "190014.906000",
          "190014.921000",
          "190014.921000",
          "190014.921000",
          "190014.921000",
          "190014.921000",
          "190014.921000",
          "190014.921000",
          "190014.937000",
          "190014.937000",
          "190014.937000",
          "190014.937000",
          "190014.937000",
          "190014.937000",
          "190014.937000",
          "190014.953000",
          "190014.953000",
          "190114.890000",
          "190114.890000",
          "190114.890000",
          "190114.906000",
          "190114.906000",
          "190114.906000",
          "190114.906000",
          "190114.921000",
          "190114.921000",
          "190114.921000",
          "190114.921000",
          "190114.921000",
          "190114.921000",
          "190114.921000",
          "190114.921000",
          "190114.937000",
          "190114.937000",
          "190114.937000",
          "190114.937000",
          "190114.937000",
          "190114.937000",
          "190114.937000",
          "190114.953000",
          "190214.890000",
          "190214.890000",
          "190214.890000",
          "190214.890000",
          "190214.906000",
          "190214.906000",
          "190214.906000",
          "190214.906000",
          "190214.906000",
          "190214.906000",
          "190214.906000",
          "190214.921000",
          "190214.921000",
          "190214.921000",
          "190214.921000",
          "190214.921000",
          "190214.921000",
          "190214.921000",
          "190214.921000",
          "190214.937000",
          "190214.937000",
          "190214.937000",
          "190214.937000",
          "190314.890000",
          "190314.890000",
          "190314.890000",
          "190314.890000",
          "190314.906000",
          "190314.906000",
          "190314.906000",
          "190314.906000",
          "190314.906000",
          "190314.921000",
          "190314.921000",
          "190314.921000",
          "190314.921000",
          "190314.921000",
          "190314.921000",
          "190314.921000",
          "190314.937000",
          "190314.937000",
          "190314.937000",
          "190314.937000",
          "190314.937000",
          "190314.937000",
          "190314.937000",
          "190354.890000",
          "190354.890000",
          "190354.890000",
          "190354.890000",
          "190354.906000",
          "190354.906000",
          "190354.906000",
          "190354.906000",
          "190354.906000",
          "190354.906000",
          "190354.906000",
          "190354.921000",
          "190354.921000",
          "190354.921000",
          "190354.921000",
          "190354.921000",
          "190454.890000",
          "190454.890000",
          "190454.906000",
          "190454.906000",
          "190454.906000",
          "190454.906000",
          "190454.906000",
          "190454.906000",
          "190454.921000",
          "190454.921000",
          "190454.921000",
          "190454.921000",
          "190454.937000",
          "190454.937000",
          "190454.937000",
          "190454.937000",
          "190454.937000",
          "190454.937000",
          "190454.937000",
          "190454.953000",
          "190454.953000",
          "190454.953000",
          "190454.953000",
          "190535.859000",
          "190535.859000",
          "190535.859000",
          "190535.875000",
          "190535.875000",
          "190535.875000",
          "190535.875000",
          "190535.875000",
          "190535.890000",
          "190535.890000",
          "190535.890000",
          "190535.890000",
          "190535.890000",
          "190535.890000"
        ],
        "InstanceCreationTime": [
          "185714.921000",
          "185714.937000",
          "185714.937000",
          "185714.937000",
          "185714.937000",
          "185714.937000",
          "185714.953000",
          "185714.953000",
          "185714.953000",
          "185714.953000",
          "185714.953000",
          "185714.953000",
          "185714.953000",
          "185714.968000",
          "185714.968000",
          "185714.968000",
          "185714.968000",
          "185714.968000",
          "185714.968000",
          "185714.968000",
          "185714.984000",
          "185714.984000",
          "185714.984000",
          "185714.984000",
          "185715.000000",
          "185814.890000",
          "185814.890000",
          "185814.890000",
          "185814.890000",
          "185814.906000",
          "185814.906000",
          "185814.906000",
          "185814.906000",
          "185814.906000",
          "185814.906000",
          "185814.906000",
          "185814.906000",
          "185814.921000",
          "185814.921000",
          "185814.921000",
          "185814.921000",
          "185814.921000",
          "185814.921000",
          "185814.937000",
          "185814.937000",
          "185814.937000",
          "185814.937000",
          "185814.937000",
          "185914.890000",
          "185914.890000",
          "185914.890000",
          "185914.890000",
          "185914.890000",
          "185914.906000",
          "185914.906000",
          "185914.906000",
          "185914.906000",
          "185914.906000",
          "185914.906000",
          "185914.906000",
          "185914.921000",
          "185914.921000",
          "185914.921000",
          "185914.921000",
          "185914.921000",
          "185914.921000",
          "185914.937000",
          "185914.937000",
          "185914.937000",
          "185914.937000",
          "185914.937000",
          "190014.890000",
          "190014.890000",
          "190014.906000",
          "190014.906000",
          "190014.906000",
          "190014.906000",
          "190014.906000",
          "190014.921000",
          "190014.921000",
          "190014.921000",
          "190014.921000",
          "190014.921000",
          "190014.921000",
          "190014.921000",
          "190014.937000",
          "190014.937000",
          "190014.937000",
          "190014.937000",
          "190014.937000",
          "190014.937000",
          "190014.937000",
          "190014.953000",
          "190014.953000",
          "190114.890000",
          "190114.890000",
          "190114.890000",
          "190114.906000",
          "190114.906000",
          "190114.906000",
          "190114.906000",
          "190114.921000",
          "190114.921000",
          "190114.921000",
          "190114.921000",
          "190114.921000",
          "190114.921000",
          "190114.921000",
          "190114.921000",
          "190114.937000",
          "190114.937000",
          "190114.937000",
          "190114.937000",
          "190114.937000",
          "190114.937000",
          "190114.937000",
          "190114.953000",
          "190214.890000",
          "190214.890000",
          "190214.890000",
          "190214.890000",
          "190214.906000",
          "190214.906000",
          "190214.906000",
          "190214.906000",
          "190214.906000",
          "190214.906000",
          "190214.906000",
          "190214.921000",
          "190214.921000",
          "190214.921000",
          "190214.921000",
          "190214.921000",
          "190214.921000",
          "190214.921000",
          "190214.921000",
          "190214.937000",
          "190214.937000",
          "190214.937000",
          "190214.937000",
          "190314.890000",
          "190314.890000",
          "190314.890000",
          "190314.890000",
          "190314.906000",
          "190314.906000",
          "190314.906000",
          "190314.906000",
          "190314.906000",
          "190314.921000",
          "190314.921000",
          "190314.921000",
          "190314.921000",
          "190314.921000",
          "190314.921000",
          "190314.921000",
          "190314.937000",
          "190314.937000",
          "190314.937000",
          "190314.937000",
          "190314.937000",
          "190314.937000",
          "190314.937000",
          "190354.890000",
          "190354.890000",
          "190354.890000",
          "190354.890000",
          "190354.906000",
          "190354.906000",
          "190354.906000",
          "190354.906000",
          "190354.906000",
          "190354.906000",
          "190354.906000",
          "190354.921000",
          "190354.921000",
          "190354.921000",
          "190354.921000",
          "190354.921000",
          "190454.890000",
          "190454.890000",
          "190454.906000",
          "190454.906000",
          "190454.906000",
          "190454.906000",
          "190454.906000",
          "190454.906000",
          "190454.921000",
          "190454.921000",
          "190454.921000",
          "190454.921000",
          "190454.937000",
          "190454.937000",
          "190454.937000",
          "190454.937000",
          "190454.937000",
          "190454.937000",
          "190454.937000",
          "190454.953000",
          "190454.953000",
          "190454.953000",
          "190454.953000",
          "190535.859000",
          "190535.859000",
          "190535.859000",
          "190535.875000",
          "190535.875000",
          "190535.875000",
          "190535.875000",
          "190535.875000",
          "190535.890000",
          "190535.890000",
          "190535.890000",
          "190535.890000",
          "190535.890000",
          "190535.890000"
        ],
        "InstanceNumber": [
          1,
          2,
          3,
          4,
          5,
          6,
          7,
          8,
          9,
          10,
          11,
          12,
          13,
          14,
          15,
          16,
          17,
          18,
          19,
          20,
          21,
          22,
          23,
          24,
          25,
          26,
          27,
          28,
          29,
          30,
          31,
          32,
          33,
          34,
          35,
          36,
          37,
          38,
          39,
          40,
          41,
          42,
          43,
          44,
          45,
          46,
          47,
          48,
          49,
          50,
          51,
          52,
          53,
          54,
          55,
          56,
          57,
          58,
          59,
          60,
          61,
          62,
          63,
          64,
          65,
          66,
          67,
          68,
          69,
          70,
          71,
          72,
          73,
          74,
          75,
          76,
          77,
          78,
          79,
          80,
          81,
          82,
          83,
          84,
          85,
          86,
          87,
          88,
          89,
          90,
          91,
          92,
          93,
          94,
          95,
          96,
          97,
          98,
          99,
          100,
          101,
          102,
          103,
          104,
          105,
          106,
          107,
          108,
          109,
          110,
          111,
          112,
          113,
          114,
          115,
          116,
          117,
          118,
          119,
          120,
          121,
          122,
          123,
          124,
          125,
          126,
          127,
          128,
          129,
          130,
          131,
          132,
          133,
          134,
          135,
          136,
          137,
          138,
          139,
          140,
          141,
          142,
          143,
          144,
          145,
          146,
          147,
          148,
          149,
          150,
          151,
          152,
          153,
          154,
          155,
          156,
          157,
          158,
          159,
          160,
          161,
          162,
          163,
          164,
          165,
          166,
          167,
          168,
          169,
          170,
