{
  "aor": 0.0005449537037037036,
  "aqi": 0.013924008333333335,
  "bids_meta": {
    "AcquisitionMatrixPE": 188,
    "AcquisitionNumber": 1,
    "AcquisitionTime": "19:17:24.175000",
    "BandwidthPerPixelPhaseEncode": 19.46,
    "BaseResolution": 188,
    "ConversionSoftware": "dcm2niix",
    "ConversionSoftwareVersion": "v1.0.20180606 GCC4.8.5",
    "DelayTime": 1.2,
    "DerivedVendorReportedEchoSpacing": 0.000820013,
    "DeviceSerialNumber": "18930",
    "DwellTime": 1.9e-06,
    "EchoTime": 0.02,
    "EffectiveEchoSpacing": 0.000273338,
    "FlipAngle": 80,
    "ImageComments": "Unaliased_MB2_PE2",
    "ImageOrientationPatientDICOM": [
      0.998487,
      0.0489497,
      -0.0250718,
      -0.0348181,
      0.209744,
      -0.977136
    ],
    "ImageType": [
      "ORIGINAL",
      "PRIMARY",
      "M",
      "MB",
      "ND",
      "MOSAIC"
    ],
    "InPlanePhaseEncodingDirectionDICOM": "COL",
    "InstitutionAddress": "Oxfordlaan_55_Maastricht_Limburg_NL_6229_EV",
    "InstitutionName": "Scannexus",
    "InstitutionalDepartmentName": "MRI_7T",
    "MRAcquisitionType": "2D",
    "MagneticFieldStrength": 6.98,
    "Manufacturer": "Siemens",
    "ManufacturersModelName": "Investigational_Device_7T",
    "Modality": "MR",
    "MultibandAccelerationFactor": 2,
    "ParallelReductionFactorInPlane": 3,
    "PartialFourier": 0.75,
    "PatientPosition": "HFS",
    "PercentPhaseFOV": 100,
    "PhaseEncodingDirection": "j",
    "PhaseEncodingSteps": 141,
    "PhaseResolution": 1,
    "PixelBandwidth": 1400,
    "ProcedureStepDescription": "FeDem_fMRI",
    "ProtocolName": "cmrr_mbep2d_bold_AP_run6",
    "PulseSequenceDetails": "%CustomerSeq%_cmrr_mbep2d_bold",
    "ReceiveCoilName": "32Ch_Head_7T",
    "ReconMatrixPE": 188,
    "RepetitionTime": 2.6,
    "SAR": 0.095069,
    "ScanOptions": "PFP_FS",
    "ScanningSequence": "EP",
    "SequenceName": "epfid2d1_188",
    "SequenceVariant": "SK_SS",
    "SeriesDescription": "cmrr_mbep2d_bold_AP_run6",
    "SeriesNumber": 15,
    "ShimSetting": [
      83,
      -18,
      483,
      568,
      -170,
      372,
      397,
      176
    ],
    "SliceThickness": 1.1,
    "SliceTiming": [
      0,
      0.735,
      0.0625,
      0.795,
      0.1225,
      0.8575,
      0.185,
      0.9175,
      0.245,
      0.9775,
      0.3075,
      1.04,
      0.3675,
      1.1,
      0.4275,
      1.1625,
      0.49,
      1.2225,
      0.55,
      1.285,
      0.6125,
      1.345,
      0.6725,
      0,
      0.735,
      0.0625,
      0.795,
      0.1225,
      0.8575,
      0.185,
      0.9175,
      0.245,
      0.9775,
      0.3075,
      1.04,
      0.3675,
      1.1,
      0.4275,
      1.1625,
      0.49,
      1.2225,
      0.55,
      1.285,
      0.6125,
      1.345,
      0.6725
    ],
    "SoftwareVersions": "syngo_MR_B17",
    "SpacingBetweenSlices": 1.1,
    "StationName": "MRC18930",
    "TaskName": "auditory",
    "TotalReadoutTime": 0.0511141,
    "TxRefAmp": 250,
    "dataset": "ds001942",
    "dcmmeta_affine": [
      [
        -1.0940862894058228,
        -0.03815179318189621,
        0.046828996390104294,
        101.74381256103516
      ],
      [
        -0.053636323660612106,
        0.22982586920261383,
        -1.0741831064224243,
        28.606107711791992
      ],
      [
        -0.027472274377942085,
        1.0706918239593506,
        0.23224392533302307,
        -113.16610717773438
      ],
      [
        0.0,
        0.0,
        0.0,
        1.0
      ]
    ],
    "dcmmeta_reorient_transform": [
      [
        0.0,
        -1.0,
        0.0,
        187.0
      ],
      [
        1.0,
        0.0,
        0.0,
        0.0
      ],
      [
        0.0,
        0.0,
        1.0,
        0.0
      ],
      [
        0.0,
        0.0,
        0.0,
        1.0
      ]
    ],
    "dcmmeta_shape": [
      188,
      188,
      46,
      216
    ],
    "dcmmeta_slice_dim": 2,
    "dcmmeta_version": 0.6,
    "global": {
      "const": {
        "AcquisitionMatrix": [
          188,
          0,
          0,
          188
        ],
        "AngioFlag": "N",
        "BitsAllocated": 16,
        "BitsStored": 12,
        "Columns": 1316,
        "EchoNumbers": 1,
        "EchoTime": 20.0,
        "EchoTrainLength": 1,
        "FlipAngle": 80.0,
        "HighBit": 11,
        "ImageOrientationPatient": [
          0.99848652333588,
          0.04894965136422,
          -0.0250717839005,
          -0.0348181392958,
          0.20974398973716,
          -0.9771362013277
        ],
        "ImagePositionPatient": [
          -690.15651702401,
          -231.45622234465,
          706.41783103294
        ],
        "ImageType": [
          "ORIGINAL",
          "PRIMARY",
          "M",
          "MB",
          "ND",
          "MOSAIC"
        ],
        "ImagedNucleus": "1H",
        "ImagingFrequency": 297.205599,
        "InPlanePhaseEncodingDirection": "COL",
        "LargestImagePixelValue": 4095,
        "MRAcquisitionType": "2D",
        "MagneticFieldStrength": 6.98,
        "Manufacturer": "SIEMENS",
        "ManufacturerModelName": "Investigational_Device_7T",
        "Modality": "MR",
        "NumberOfAverages": 1.0,
        "NumberOfPhaseEncodingSteps": 141,
        "PercentPhaseFieldOfView": 100.0,
        "PercentSampling": 100.0,
        "PerformedProcedureStepStartTime": "175244.656000",
        "PhotometricInterpretation": "MONOCHROME2",
        "PixelBandwidth": 1400.0,
        "PixelRepresentation": 0,
        "PixelSpacing": [
          1.0957447290421,
          1.0957447290421
        ],
        "ProtocolName": "cmrr_mbep2d_bold_AP_run6",
        "RepetitionTime": 2600.0,
        "Rows": 1316,
        "SAR": 0.09506895182979,
        "SamplesPerPixel": 1,
        "ScanOptions": [
          "PFP",
          "FS"
        ],
        "ScanningSequence": "EP",
        "SequenceName": "epfid2d1_188",
        "SequenceVariant": [
          "SK",
          "SS"
        ],
        "SeriesDescription": "cmrr_mbep2d_bold_AP_run6",
        "SeriesNumber": 15,
        "SeriesTime": "191838.234000",
        "SliceLocation": -47.496170282791,
        "SliceThickness": 1.1000000238419,
        "SmallestImagePixelValue": 0,
        "SoftwareVersions": "syngo MR B17",
        "SpacingBetweenSlices": 1.0999998170913,
        "SpecificCharacterSet": "ISO_IR 100",
        "StudyID": "1",
        "StudyTime": "175244.609000",
        "TransmitCoilName": "32Ch_Head_7T",
        "VariableFlipAngleFlag": "N",
        "WindowCenterWidthExplanation": "Algo1",
        "dBdt": 0.0
      },
      "slices": {}
    },
    "modality": "bold",
    "run_id": 6,
    "session_id": "SES05",
    "subject_id": "S09",
    "task_id": "auditory",
    "time": {
      "samples": {
        "AcquisitionNumber": [
          1,
          2,
          3,
          4,
          5,
          6,
          7,
          8,
          9,
          10,
          11,
          12,
          13,
          14,
          15,
          16,
          17,
          18,
          19,
          20,
          21,
          22,
          23,
          24,
          25,
          26,
          27,
          28,
          29,
          30,
          31,
          32,
          33,
          34,
          35,
          36,
          37,
          38,
          39,
          40,
          41,
          42,
          43,
          44,
          45,
          46,
          47,
          48,
          49,
          50,
          51,
          52,
          53,
          54,
          55,
          56,
          57,
          58,
          59,
          60,
          61,
          62,
          63,
          64,
          65,
          66,
          67,
          68,
          69,
          70,
          71,
          72,
          73,
          74,
          75,
          76,
          77,
          78,
          79,
          80,
          81,
          82,
          83,
          84,
          85,
          86,
          87,
          88,
          89,
          90,
          91,
          92,
          93,
          94,
          95,
          96,
          97,
          98,
          99,
          100,
          101,
          102,
          103,
          104,
          105,
          106,
          107,
          108,
          109,
          110,
          111,
          112,
          113,
          114,
          115,
          116,
          117,
          118,
          119,
          120,
          121,
          122,
          123,
          124,
          125,
          126,
          127,
          128,
          129,
          130,
          131,
          132,
          133,
          134,
          135,
          136,
          137,
          138,
          139,
          140,
          141,
          142,
          143,
          144,
          145,
          146,
          147,
          148,
          149,
          150,
          151,
          152,
          153,
          154,
          155,
          156,
          157,
          158,
          159,
          160,
          161,
          162,
          163,
          164,
          165,
          166,
          167,
          168,
          169,
          170,
          171,
          172,
          173,
          174,
          175,
          176,
          177,
          178,
          179,
          180,
          181,
          182,
          183,
          184,
          185,
          186,
          187,
          188,
          189,
          190,
          191,
          192,
          193,
          194,
          195,
          196,
          197,
          198,
          199,
          200,
          201,
          202,
          203,
          204,
          205,
          206,
          207,
          208,
          209,
          210,
          211,
          212,
          213,
          214,
          215,
          216
        ],
        "AcquisitionTime": [
          "191724.175000",
          "191726.787500",
          "191729.397500",
          "191732.007500",
          "191734.617500",
          "191737.227500",
          "191739.837500",
          "191742.450000",
          "191745.060000",
          "191747.670000",
          "191750.280000",
          "191752.890000",
          "191755.500000",
          "191758.112500",
          "191800.722500",
          "191803.332500",
          "191805.942500",
          "191808.552500",
          "191811.165000",
          "191813.775000",
          "191816.385000",
          "191818.995000",
          "191821.605000",
          "191824.215000",
          "191826.827500",
          "191829.437500",
          "191832.047500",
          "191834.657500",
          "191837.267500",
          "191839.877500",
          "191842.490000",
          "191845.100000",
          "191847.710000",
          "191850.320000",
          "191852.930000",
          "191855.542500",
          "191858.152500",
          "191900.762500",
          "191903.372500",
          "191905.982500",
          "191908.592500",
          "191911.205000",
          "191913.815000",
          "191916.425000",
          "191919.035000",
          "191921.645000",
          "191924.255000",
          "191926.867500",
          "191929.477500",
          "191932.087500",
          "191934.697500",
          "191937.307500",
          "191939.920000",
          "191942.530000",
          "191945.140000",
          "191947.750000",
          "191950.360000",
          "191952.970000",
          "191955.582500",
          "191958.192500",
          "192000.802500",
          "192003.412500",
          "192006.022500",
          "192008.635000",
          "192011.245000",
          "192013.855000",
          "192016.465000",
          "192019.075000",
          "192021.685000",
          "192024.297500",
          "192026.907500",
          "192029.517500",
          "192032.127500",
          "192034.737500",
          "192037.347500",
          "192039.960000",
          "192042.570000",
          "192045.180000",
          "192047.790000",
          "192050.400000",
          "192053.012500",
          "192055.622500",
          "192058.232500",
          "192100.842500",
          "192103.452500",
          "192106.062500",
          "192108.675000",
          "192111.285000",
          "192113.895000",
          "192116.505000",
          "192119.115000",
          "192121.725000",
          "192124.337500",
          "192126.947500",
          "192129.557500",
          "192132.167500",
          "192134.777500",
          "192137.390000",
          "192140.000000",
          "192142.610000",
          "192145.220000",
          "192147.830000",
          "192150.440000",
          "192153.052500",
          "192155.662500",
          "192158.272500",
          "192200.882500",
          "192203.492500",
          "192206.102500",
          "192208.715000",
          "192211.325000",
          "192213.935000",
          "192216.545000",
          "192219.155000",
          "192221.767500",
          "192224.377500",
          "192226.987500",
          "192229.597500",
          "192232.207500",
          "192234.817500",
          "192237.430000",
          "192240.040000",
          "192242.650000",
          "192245.260000",
          "192247.870000",
          "192250.480000",
          "192253.092500",
          "192255.702500",
          "192258.312500",
          "192300.922500",
          "192303.532500",
          "192306.145000",
          "192308.755000",
          "192311.365000",
          "192313.975000",
          "192316.585000",
          "192319.195000",
          "192321.807500",
          "192324.417500",
          "192327.027500",
          "192329.637500",
          "192332.247500",
          "192334.857500",
          "192337.470000",
          "192340.080000",
          "192342.690000",
          "192345.300000",
          "192347.910000",
          "192350.522500",
          "192353.132500",
          "192355.742500",
          "192358.352500",
          "192400.962500",
          "192403.572500",
          "192406.185000",
          "192408.795000",
          "192411.405000",
          "192414.015000",
          "192416.625000",
          "192419.235000",
          "192421.847500",
          "192424.457500",
          "192427.067500",
          "192429.677500",
          "192432.287500",
          "192434.900000",
          "192437.510000",
          "192440.120000",
          "192442.730000",
          "192445.340000",
          "192447.950000",
          "192450.562500",
          "192453.172500",
          "192455.782500",
          "192458.392500",
          "192501.002500",
          "192503.612500",
          "192506.225000",
          "192508.835000",
          "192511.445000",
          "192514.055000",
          "192516.665000",
          "192519.277500",
          "192521.887500",
          "192524.497500",
          "192527.107500",
          "192529.717500",
          "192532.327500",
          "192534.940000",
          "192537.550000",
          "192540.160000",
          "192542.770000",
          "192545.380000",
          "192547.990000",
          "192550.602500",
          "192553.212500",
          "192555.822500",
          "192558.432500",
          "192601.042500",
          "192603.655000",
          "192606.265000",
          "192608.875000",
          "192611.485000",
          "192614.095000",
          "192616.705000",
          "192619.317500",
          "192621.927500",
          "192624.537500",
          "192627.147500",
          "192629.757500",
          "192632.367500",
          "192634.980000",
          "192637.590000",
          "192640.200000",
          "192642.810000",
          "192645.420000"
        ],
        "ContentTime": [
          "191838.234000",
          "191838.250000",
          "191838.250000",
          "191838.250000",
          "191838.250000",
          "191838.250000",
          "191838.250000",
          "191838.265000",
          "191838.265000",
          "191838.265000",
          "191838.265000",
          "191838.265000",
          "191838.265000",
          "191838.265000",
          "191838.265000",
          "191838.281000",
          "191838.281000",
          "191838.281000",
          "191838.281000",
          "191838.281000",
          "191838.281000",
          "191838.281000",
          "191838.296000",
          "191838.296000",
          "191838.296000",
          "191838.296000",
          "191838.296000",
          "191938.234000",
          "191938.234000",
          "191938.250000",
          "191938.250000",
          "191938.250000",
          "191938.265000",
          "191938.265000",
          "191938.265000",
          "191938.265000",
          "191938.265000",
          "191938.265000",
          "191938.265000",
          "191938.265000",
          "191938.281000",
          "191938.281000",
          "191938.281000",
          "191938.281000",
          "191938.281000",
          "191938.281000",
          "191938.281000",
          "191938.296000",
          "191938.296000",
          "191938.296000",
          "192038.234000",
          "192038.234000",
          "192038.234000",
          "192038.234000",
          "192038.234000",
          "192038.250000",
          "192038.250000",
          "192038.250000",
          "192038.250000",
          "192038.250000",
          "192038.250000",
          "192038.250000",
          "192038.265000",
          "192038.265000",
          "192038.265000",
          "192038.281000",
          "192038.281000",
          "192038.281000",
          "192038.281000",
          "192038.281000",
          "192038.281000",
          "192038.281000",
          "192038.296000",
          "192138.234000",
          "192138.234000",
          "192138.234000",
          "192138.234000",
          "192138.234000",
          "192138.250000",
          "192138.250000",
          "192138.250000",
          "192138.250000",
          "192138.250000",
          "192138.250000",
          "192138.250000",
          "192138.250000",
          "192138.265000",
          "192138.265000",
          "192138.265000",
          "192138.265000",
          "192138.265000",
          "192138.281000",
          "192138.281000",
          "192138.281000",
          "192138.281000",
          "192138.281000",
          "192238.234000",
          "192238.234000",
          "192238.250000",
          "192238.250000",
          "192238.250000",
          "192238.265000",
          "192238.265000",
          "192238.265000",
          "192238.265000",
          "192238.265000",
          "192238.265000",
          "192238.281000",
          "192238.281000",
          "192238.281000",
          "192238.281000",
          "192238.281000",
          "192238.281000",
          "192238.281000",
          "192238.296000",
          "192238.296000",
          "192238.296000",
          "192238.296000",
          "192238.296000",
          "192338.234000",
          "192338.234000",
          "192338.234000",
          "192338.234000",
          "192338.234000",
          "192338.250000",
          "192338.250000",
          "192338.281000",
          "192338.281000",
          "192338.281000",
          "192338.281000",
          "192338.281000",
          "192338.296000",
          "192338.296000",
          "192338.296000",
          "192338.296000",
          "192338.296000",
          "192338.296000",
          "192338.296000",
          "192338.312000",
          "192338.312000",
          "192338.312000",
          "192338.312000",
          "192338.312000",
          "192438.234000",
          "192438.234000",
          "192438.234000",
          "192438.234000",
          "192438.234000",
          "192438.250000",
          "192438.250000",
          "192438.250000",
          "192438.250000",
          "192438.250000",
          "192438.250000",
          "192438.250000",
          "192438.265000",
          "192438.265000",
          "192438.265000",
          "192438.265000",
          "192438.265000",
          "192438.281000",
          "192438.281000",
          "192438.281000",
          "192438.281000",
          "192438.281000",
          "192438.281000",
          "192538.234000",
          "192538.234000",
          "192538.234000",
          "192538.250000",
          "192538.250000",
          "192538.250000",
          "192538.250000",
          "192538.265000",
          "192538.265000",
          "192538.265000",
          "192538.265000",
          "192538.265000",
          "192538.265000",
          "192538.265000",
          "192538.281000",
          "192538.281000",
          "192538.281000",
          "192538.281000",
          "192538.281000",
          "192538.281000",
          "192538.281000",
          "192538.296000",
          "192538.296000",
          "192638.234000",
          "192638.234000",
          "192638.234000",
          "192638.250000",
          "192638.250000",
          "192638.250000",
          "192638.265000",
          "192638.265000",
          "192638.265000",
          "192638.265000",
          "192638.265000",
          "192638.281000",
          "192638.281000",
          "192638.281000",
          "192638.281000",
          "192638.281000",
          "192638.281000",
          "192638.281000",
          "192638.296000",
          "192638.296000",
          "192638.296000",
          "192638.296000",
          "192638.296000",
          "192652.843000",
          "192652.843000",
          "192652.859000",
          "192652.859000"
        ],
        "InstanceCreationTime": [
          "191838.234000",
          "191838.250000",
          "191838.250000",
          "191838.250000",
          "191838.250000",
          "191838.250000",
          "191838.250000",
          "191838.265000",
          "191838.265000",
          "191838.265000",
          "191838.265000",
          "191838.265000",
          "191838.265000",
          "191838.265000",
          "191838.265000",
          "191838.281000",
          "191838.281000",
          "191838.281000",
          "191838.281000",
          "191838.281000",
          "191838.281000",
          "191838.281000",
          "191838.296000",
          "191838.296000",
          "191838.296000",
          "191838.296000",
          "191838.296000",
          "191938.234000",
          "191938.234000",
          "191938.250000",
          "191938.250000",
          "191938.250000",
          "191938.265000",
          "191938.265000",
          "191938.265000",
          "191938.265000",
          "191938.265000",
          "191938.265000",
          "191938.265000",
          "191938.265000",
          "191938.281000",
          "191938.281000",
          "191938.281000",
          "191938.281000",
          "191938.281000",
          "191938.281000",
          "191938.281000",
          "191938.296000",
          "191938.296000",
          "191938.296000",
          "192038.234000",
          "192038.234000",
          "192038.234000",
          "192038.234000",
          "192038.234000",
          "192038.250000",
          "192038.250000",
          "192038.250000",
          "192038.250000",
          "192038.250000",
          "192038.250000",
          "192038.250000",
          "192038.265000",
          "192038.265000",
          "192038.265000",
          "192038.281000",
          "192038.281000",
          "192038.281000",
          "192038.281000",
          "192038.281000",
          "192038.281000",
          "192038.281000",
          "192038.296000",
          "192138.234000",
          "192138.234000",
          "192138.234000",
          "192138.234000",
          "192138.234000",
          "192138.250000",
          "192138.250000",
          "192138.250000",
          "192138.250000",
          "192138.250000",
          "192138.250000",
          "192138.250000",
          "192138.250000",
          "192138.265000",
          "192138.265000",
          "192138.265000",
          "192138.265000",
          "192138.265000",
          "192138.281000",
          "192138.281000",
          "192138.281000",
          "192138.281000",
          "192138.281000",
          "192238.234000",
          "192238.234000",
          "192238.250000",
          "192238.250000",
          "192238.250000",
          "192238.265000",
          "192238.265000",
          "192238.265000",
          "192238.265000",
          "192238.265000",
          "192238.265000",
          "192238.281000",
          "192238.281000",
          "192238.281000",
          "192238.281000",
          "192238.281000",
          "192238.281000",
          "192238.281000",
          "192238.296000",
          "192238.296000",
          "192238.296000",
          "192238.296000",
          "192238.296000",
          "192338.234000",
          "192338.234000",
          "192338.234000",
          "192338.234000",
          "192338.234000",
          "192338.250000",
          "192338.250000",
          "192338.281000",
          "192338.281000",
          "192338.281000",
          "192338.281000",
          "192338.281000",
          "192338.296000",
          "192338.296000",
          "192338.296000",
          "192338.296000",
          "192338.296000",
          "192338.296000",
          "192338.296000",
          "192338.312000",
          "192338.312000",
          "192338.312000",
          "192338.312000",
          "192338.312000",
          "192438.234000",
          "192438.234000",
          "192438.234000",
          "192438.234000",
          "192438.234000",
          "192438.250000",
          "192438.250000",
          "192438.250000",
          "192438.250000",
          "192438.250000",
          "192438.250000",
          "192438.250000",
          "192438.265000",
          "192438.265000",
          "192438.265000",
          "192438.265000",
          "192438.265000",
          "192438.281000",
          "192438.281000",
          "192438.281000",
          "192438.281000",
          "192438.281000",
          "192438.281000",
          "192538.234000",
          "192538.234000",
          "192538.234000",
          "192538.250000",
          "192538.250000",
          "192538.250000",
          "192538.250000",
          "192538.265000",
          "192538.265000",
          "192538.265000",
          "192538.265000",
          "192538.265000",
          "192538.265000",
          "192538.265000",
          "192538.281000",
          "192538.281000",
          "192538.281000",
          "192538.281000",
          "192538.281000",
          "192538.281000",
          "192538.281000",
          "192538.296000",
          "192538.296000",
          "192638.234000",
          "192638.234000",
          "192638.234000",
          "192638.250000",
          "192638.250000",
          "192638.250000",
          "192638.265000",
          "192638.265000",
          "192638.265000",
          "192638.265000",
          "192638.265000",
          "192638.281000",
          "192638.281000",
          "192638.281000",
          "192638.281000",
          "192638.281000",
          "192638.281000",
          "192638.281000",
          "192638.296000",
          "192638.296000",
          "192638.296000",
          "192638.296000",
          "192638.296000",
          "192652.843000",
          "192652.843000",
          "192652.859000",
          "192652.859000"
        ],
        "InstanceNumber": [
          1,
          2,
          3,
          4,
          5,
          6,
          7,
          8,
          9,
          10,
          11,
          12,
          13,
          14,
          15,
          16,
          17,
          18,
          19,
          20,
          21,
          22,
          23,
          24,
          25,
          26,
          27,
          28,
          29,
          30,
          31,
          32,
          33,
          34,
          35,
          36,
          37,
          38,
          39,
          40,
          41,
          42,
          43,
          44,
          45,
          46,
          47,
          48,
          49,
          50,
          51,
          52,
          53,
          54,
          55,
          56,
          57,
          58,
          59,
          60,
          61,
          62,
          63,
          64,
          65,
          66,
          67,
          68,
          69,
          70,
          71,
          72,
          73,
          74,
          75,
          76,
          77,
          78,
          79,
          80,
          81,
          82,
          83,
          84,
          85,
          86,
          87,
          88,
          89,
          90,
          91,
          92,
          93,
          94,
          95,
          96,
          97,
          98,
          99,
          100,
          101,
          102,
          103,
          104,
          105,
          106,
          107,
          108,
          109,
          110,
          111,
          112,
          113,
          114,
          115,
          116,
          117,
          118,
          119,
          120,
          121,
          122,
          123,
          124,
          125,
          126,
          127,
          128,
          129,
          130,
          131,
          132,
          133,
          134,
          135,
          136,
          137,
          138,
          139,
          140,
          141,
          142,
          143,
          144,
          145,
          146,
          147,
          148,
          149,
          150,
          151,
          152,
          153,
          154,
          155,
          156,
          157,
          158,
          159,
          160,
          161,
          162,
          163,
          164,
          165,
          166,
          167,
          168,
          169,
          170,
