{
  "aor": 0.0005000462962962963,
  "aqi": 0.013095918055555556,
  "bids_meta": {
    "AcquisitionMatrixPE": 188,
    "AcquisitionNumber": 1,
    "AcquisitionTime": "18:34:43.192500",
    "BandwidthPerPixelPhaseEncode": 19.46,
    "BaseResolution": 188,
    "ConversionSoftware": "dcm2niix",
    "ConversionSoftwareVersion": "v1.0.20180606 GCC4.8.5",
    "DelayTime": 1.2,
    "DerivedVendorReportedEchoSpacing": 0.000820013,
    "DeviceSerialNumber": "18930",
    "DwellTime": 1.9e-06,
    "EchoTime": 0.02,
    "EffectiveEchoSpacing": 0.000273338,
    "FlipAngle": 80,
    "ImageComments": "Unaliased_MB2_PE2",
    "ImageOrientationPatientDICOM": [
      0.998487,
      0.0489497,
      -0.0250718,
      -0.0348181,
      0.209744,
      -0.977136
    ],
    "ImageType": [
      "ORIGINAL",
      "PRIMARY",
      "M",
      "MB",
      "ND",
      "MOSAIC"
    ],
    "InPlanePhaseEncodingDirectionDICOM": "COL",
    "InstitutionAddress": "Oxfordlaan_55_Maastricht_Limburg_NL_6229_EV",
    "InstitutionName": "Scannexus",
    "InstitutionalDepartmentName": "MRI_7T",
    "MRAcquisitionType": "2D",
    "MagneticFieldStrength": 6.98,
    "Manufacturer": "Siemens",
    "ManufacturersModelName": "Investigational_Device_7T",
    "Modality": "MR",
    "MultibandAccelerationFactor": 2,
    "ParallelReductionFactorInPlane": 3,
    "PartialFourier": 0.75,
    "PatientPosition": "HFS",
    "PercentPhaseFOV": 100,
    "PhaseEncodingDirection": "j",
    "PhaseEncodingSteps": 141,
    "PhaseResolution": 1,
    "PixelBandwidth": 1400,
    "ProcedureStepDescription": "FeDem_fMRI",
    "ProtocolName": "cmrr_mbep2d_bold_AP_run2",
    "PulseSequenceDetails": "%CustomerSeq%_cmrr_mbep2d_bold",
    "ReceiveCoilName": "32Ch_Head_7T",
    "ReconMatrixPE": 188,
    "RepetitionTime": 2.6,
    "SAR": 0.0950558,
    "ScanOptions": "PFP_FS",
    "ScanningSequence": "EP",
    "SequenceName": "epfid2d1_188",
    "SequenceVariant": "SK_SS",
    "SeriesDescription": "cmrr_mbep2d_bold_AP_run2",
    "SeriesNumber": 11,
    "ShimSetting": [
      83,
      -18,
      483,
      568,
      -170,
      372,
      397,
      176
    ],
    "SliceThickness": 1.1,
    "SliceTiming": [
      0,
      0.7325,
      0.06,
      0.795,
      0.1225,
      0.855,
      0.1825,
      0.9175,
      0.245,
      0.9775,
      0.305,
      1.04,
      0.3675,
      1.1,
      0.4275,
      1.16,
      0.49,
      1.2225,
      0.55,
      1.2825,
      0.61,
      1.345,
      0.6725,
      0,
      0.7325,
      0.06,
      0.795,
      0.1225,
      0.855,
      0.1825,
      0.9175,
      0.245,
      0.9775,
      0.305,
      1.04,
      0.3675,
      1.1,
      0.4275,
      1.16,
      0.49,
      1.2225,
      0.55,
      1.2825,
      0.61,
      1.345,
      0.6725
    ],
    "SoftwareVersions": "syngo_MR_B17",
    "SpacingBetweenSlices": 1.1,
    "StationName": "MRC18930",
    "TaskName": "auditory",
    "TotalReadoutTime": 0.0511141,
    "TxRefAmp": 250,
    "dataset": "ds001942",
    "dcmmeta_affine": [
      [
        -1.0940862894058228,
        -0.03815179318189621,
        0.046828996390104294,
        101.74381256103516
      ],
      [
        -0.053636323660612106,
        0.22982586920261383,
        -1.0741831064224243,
        28.606107711791992
      ],
      [
        -0.027472274377942085,
        1.0706918239593506,
        0.23224392533302307,
        -113.16610717773438
      ],
      [
        0.0,
        0.0,
        0.0,
        1.0
      ]
    ],
    "dcmmeta_reorient_transform": [
      [
        0.0,
        -1.0,
        0.0,
        187.0
      ],
      [
        1.0,
        0.0,
        0.0,
        0.0
      ],
      [
        0.0,
        0.0,
        1.0,
        0.0
      ],
      [
        0.0,
        0.0,
        0.0,
        1.0
      ]
    ],
    "dcmmeta_shape": [
      188,
      188,
      46,
      216
    ],
    "dcmmeta_slice_dim": 2,
    "dcmmeta_version": 0.6,
    "global": {
      "const": {
        "AcquisitionMatrix": [
          188,
          0,
          0,
          188
        ],
        "AngioFlag": "N",
        "BitsAllocated": 16,
        "BitsStored": 12,
        "Columns": 1316,
        "EchoNumbers": 1,
        "EchoTime": 20.0,
        "EchoTrainLength": 1,
        "FlipAngle": 80.0,
        "HighBit": 11,
        "ImageOrientationPatient": [
          0.99848652333588,
          0.04894965136422,
          -0.0250717839005,
          -0.0348181392958,
          0.20974398973716,
          -0.9771362013277
        ],
        "ImagePositionPatient": [
          -690.15651702401,
          -231.45622234465,
          706.41783103294
        ],
        "ImageType": [
          "ORIGINAL",
          "PRIMARY",
          "M",
          "MB",
          "ND",
          "MOSAIC"
        ],
        "ImagedNucleus": "1H",
        "ImagingFrequency": 297.20559,
        "InPlanePhaseEncodingDirection": "COL",
        "LargestImagePixelValue": 4095,
        "MRAcquisitionType": "2D",
        "MagneticFieldStrength": 6.98,
        "Manufacturer": "SIEMENS",
        "ManufacturerModelName": "Investigational_Device_7T",
        "Modality": "MR",
        "NumberOfAverages": 1.0,
        "NumberOfPhaseEncodingSteps": 141,
        "PercentPhaseFieldOfView": 100.0,
        "PercentSampling": 100.0,
        "PerformedProcedureStepStartTime": "175244.656000",
        "PhotometricInterpretation": "MONOCHROME2",
        "PixelBandwidth": 1400.0,
        "PixelRepresentation": 0,
        "PixelSpacing": [
          1.0957447290421,
          1.0957447290421
        ],
        "ProtocolName": "cmrr_mbep2d_bold_AP_run2",
        "RepetitionTime": 2600.0,
        "Rows": 1316,
        "SAR": 0.09505575821358,
        "SamplesPerPixel": 1,
        "ScanOptions": [
          "PFP",
          "FS"
        ],
        "ScanningSequence": "EP",
        "SequenceName": "epfid2d1_188",
        "SequenceVariant": [
          "SK",
          "SS"
        ],
        "SeriesDescription": "cmrr_mbep2d_bold_AP_run2",
        "SeriesNumber": 11,
        "SeriesTime": "183537.453000",
        "SliceLocation": -47.496170282791,
        "SliceThickness": 1.1000000238419,
        "SmallestImagePixelValue": 0,
        "SoftwareVersions": "syngo MR B17",
        "SpacingBetweenSlices": 1.0999998170913,
        "SpecificCharacterSet": "ISO_IR 100",
        "StudyID": "1",
        "StudyTime": "175244.609000",
        "TransmitCoilName": "32Ch_Head_7T",
        "VariableFlipAngleFlag": "N",
        "WindowCenterWidthExplanation": "Algo1",
        "dBdt": 0.0
      },
      "slices": {}
    },
    "modality": "bold",
    "run_id": 2,
    "session_id": "SES05",
    "subject_id": "S09",
    "task_id": "auditory",
    "time": {
      "samples": {
        "AcquisitionNumber": [
          1,
          2,
          3,
          4,
          5,
          6,
          7,
          8,
          9,
          10,
          11,
          12,
          13,
          14,
          15,
          16,
          17,
          18,
          19,
          20,
          21,
          22,
          23,
          24,
          25,
          26,
          27,
          28,
          29,
          30,
          31,
          32,
          33,
          34,
          35,
          36,
          37,
          38,
          39,
          40,
          41,
          42,
          43,
          44,
          45,
          46,
          47,
          48,
          49,
          50,
          51,
          52,
          53,
          54,
          55,
          56,
          57,
          58,
          59,
          60,
          61,
          62,
          63,
          64,
          65,
          66,
          67,
          68,
          69,
          70,
          71,
          72,
          73,
          74,
          75,
          76,
          77,
          78,
          79,
          80,
          81,
          82,
          83,
          84,
          85,
          86,
          87,
          88,
          89,
          90,
          91,
          92,
          93,
          94,
          95,
          96,
          97,
          98,
          99,
          100,
          101,
          102,
          103,
          104,
          105,
          106,
          107,
          108,
          109,
          110,
          111,
          112,
          113,
          114,
          115,
          116,
          117,
          118,
          119,
          120,
          121,
          122,
          123,
          124,
          125,
          126,
          127,
          128,
          129,
          130,
          131,
          132,
          133,
          134,
          135,
          136,
          137,
          138,
          139,
          140,
          141,
          142,
          143,
          144,
          145,
          146,
          147,
          148,
          149,
          150,
          151,
          152,
          153,
          154,
          155,
          156,
          157,
          158,
          159,
          160,
          161,
          162,
          163,
          164,
          165,
          166,
          167,
          168,
          169,
          170,
          171,
          172,
          173,
          174,
          175,
          176,
          177,
          178,
          179,
          180,
          181,
          182,
          183,
          184,
          185,
          186,
          187,
          188,
          189,
          190,
          191,
          192,
          193,
          194,
          195,
          196,
          197,
          198,
          199,
          200,
          201,
          202,
          203,
          204,
          205,
          206,
          207,
          208,
          209,
          210,
          211,
          212,
          213,
          214,
          215,
          216
        ],
        "AcquisitionTime": [
          "183443.192500",
          "183445.802500",
          "183448.412500",
          "183451.025000",
          "183453.635000",
          "183456.245000",
          "183458.855000",
          "183501.465000",
          "183504.075000",
          "183506.687500",
          "183509.297500",
          "183511.907500",
          "183514.517500",
          "183517.127500",
          "183519.737500",
          "183522.350000",
          "183524.960000",
          "183527.570000",
          "183530.180000",
          "183532.790000",
          "183535.402500",
          "183538.012500",
          "183540.622500",
          "183543.232500",
          "183545.842500",
          "183548.452500",
          "183551.065000",
          "183553.675000",
          "183556.285000",
          "183558.895000",
          "183601.505000",
          "183604.115000",
          "183606.727500",
          "183609.337500",
          "183611.947500",
          "183614.557500",
          "183617.167500",
          "183619.780000",
          "183622.390000",
          "183625.000000",
          "183627.610000",
          "183630.220000",
          "183632.830000",
          "183635.442500",
          "183638.052500",
          "183640.662500",
          "183643.272500",
          "183645.882500",
          "183648.492500",
          "183651.105000",
          "183653.715000",
          "183656.325000",
          "183658.935000",
          "183701.545000",
          "183704.157500",
          "183706.767500",
          "183709.377500",
          "183711.987500",
          "183714.597500",
          "183717.207500",
          "183719.820000",
          "183722.430000",
          "183725.040000",
          "183727.650000",
          "183730.260000",
          "183732.870000",
          "183735.482500",
          "183738.092500",
          "183740.702500",
          "183743.312500",
          "183745.922500",
          "183748.535000",
          "183751.145000",
          "183753.755000",
          "183756.365000",
          "183758.975000",
          "183801.585000",
          "183804.197500",
          "183806.807500",
          "183809.417500",
          "183812.027500",
          "183814.637500",
          "183817.247500",
          "183819.860000",
          "183822.470000",
          "183825.080000",
          "183827.690000",
          "183830.300000",
          "183832.912500",
          "183835.522500",
          "183838.132500",
          "183840.742500",
          "183843.352500",
          "183845.962500",
          "183848.575000",
          "183851.185000",
          "183853.795000",
          "183856.405000",
          "183859.015000",
          "183901.625000",
          "183904.237500",
          "183906.847500",
          "183909.457500",
          "183912.067500",
          "183914.677500",
          "183917.290000",
          "183919.900000",
          "183922.510000",
          "183925.120000",
          "183927.730000",
          "183930.340000",
          "183932.952500",
          "183935.562500",
          "183938.172500",
          "183940.782500",
          "183943.392500",
          "183946.005000",
          "183948.615000",
          "183951.225000",
          "183953.835000",
          "183956.445000",
          "183959.055000",
          "184001.667500",
          "184004.277500",
          "184006.887500",
          "184009.497500",
          "184012.107500",
          "184014.717500",
          "184017.330000",
          "184019.940000",
          "184022.550000",
          "184025.160000",
          "184027.770000",
          "184030.382500",
          "184032.992500",
          "184035.602500",
          "184038.212500",
          "184040.822500",
          "184043.432500",
          "184046.045000",
          "184048.655000",
          "184051.265000",
          "184053.875000",
          "184056.485000",
          "184059.095000",
          "184101.707500",
          "184104.317500",
          "184106.927500",
          "184109.537500",
          "184112.147500",
          "184114.760000",
          "184117.370000",
          "184119.980000",
          "184122.590000",
          "184125.200000",
          "184127.810000",
          "184130.422500",
          "184133.032500",
          "184135.642500",
          "184138.252500",
          "184140.862500",
          "184143.472500",
          "184146.085000",
          "184148.695000",
          "184151.305000",
          "184153.915000",
          "184156.525000",
          "184159.137500",
          "184201.747500",
          "184204.357500",
          "184206.967500",
          "184209.577500",
          "184212.187500",
          "184214.800000",
          "184217.410000",
          "184220.020000",
          "184222.630000",
          "184225.240000",
          "184227.850000",
          "184230.462500",
          "184233.072500",
          "184235.682500",
          "184238.292500",
          "184240.902500",
          "184243.515000",
          "184246.125000",
          "184248.735000",
          "184251.345000",
          "184253.955000",
          "184256.565000",
          "184259.177500",
          "184301.787500",
          "184304.397500",
          "184307.007500",
          "184309.617500",
          "184312.227500",
          "184314.840000",
          "184317.450000",
          "184320.060000",
          "184322.670000",
          "184325.280000",
          "184327.892500",
          "184330.502500",
          "184333.112500",
          "184335.722500",
          "184338.332500",
          "184340.942500",
          "184343.555000",
          "184346.165000",
          "184348.775000",
          "184351.385000",
          "184353.995000",
          "184356.605000",
          "184359.217500",
          "184401.827500",
          "184404.437500"
        ],
        "ContentTime": [
          "183537.453000",
          "183537.468000",
          "183537.468000",
          "183537.468000",
          "183537.468000",
          "183537.484000",
          "183537.484000",
          "183537.500000",
          "183537.500000",
          "183537.500000",
          "183537.500000",
          "183537.500000",
          "183537.500000",
          "183537.500000",
          "183537.500000",
          "183537.515000",
          "183537.515000",
          "183537.515000",
          "183537.515000",
          "183537.515000",
          "183637.453000",
          "183637.453000",
          "183637.453000",
          "183637.468000",
          "183637.468000",
          "183637.468000",
          "183637.468000",
          "183637.468000",
          "183637.468000",
          "183637.468000",
          "183637.484000",
          "183637.484000",
          "183637.484000",
          "183637.484000",
          "183637.484000",
          "183637.484000",
          "183637.484000",
          "183637.500000",
          "183637.500000",
          "183637.500000",
          "183637.500000",
          "183637.500000",
          "183637.500000",
          "183737.453000",
          "183737.453000",
          "183737.453000",
          "183737.453000",
          "183737.468000",
          "183737.468000",
          "183737.468000",
          "183737.468000",
          "183737.468000",
          "183737.468000",
          "183737.468000",
          "183737.468000",
          "183737.484000",
          "183737.484000",
          "183737.484000",
          "183737.484000",
          "183737.484000",
          "183737.484000",
          "183737.484000",
          "183737.500000",
          "183737.500000",
          "183737.500000",
          "183737.500000",
          "183837.453000",
          "183837.453000",
          "183837.453000",
          "183837.468000",
          "183837.468000",
          "183837.468000",
          "183837.468000",
          "183837.468000",
          "183837.468000",
          "183837.484000",
          "183837.484000",
          "183837.484000",
          "183837.484000",
          "183837.484000",
          "183837.484000",
          "183837.484000",
          "183837.484000",
          "183837.500000",
          "183837.500000",
          "183837.500000",
          "183837.500000",
          "183837.500000",
          "183837.500000",
          "183937.453000",
          "183937.453000",
          "183937.453000",
          "183937.468000",
          "183937.468000",
          "183937.468000",
          "183937.468000",
          "183937.484000",
          "183937.484000",
          "183937.484000",
          "183937.484000",
          "183937.484000",
          "183937.500000",
          "183937.500000",
          "183937.500000",
          "183937.500000",
          "183937.500000",
          "183937.500000",
          "183937.500000",
          "183937.515000",
          "183937.515000",
          "183937.515000",
          "183937.515000",
          "184037.453000",
          "184037.453000",
          "184037.453000",
          "184037.468000",
          "184037.468000",
          "184037.468000",
          "184037.468000",
          "184037.468000",
          "184037.468000",
          "184037.468000",
          "184037.468000",
          "184037.484000",
          "184037.484000",
          "184037.484000",
          "184037.484000",
          "184037.484000",
          "184037.484000",
          "184037.484000",
          "184037.500000",
          "184037.500000",
          "184037.500000",
          "184037.500000",
          "184037.500000",
          "184137.453000",
          "184137.453000",
          "184137.468000",
          "184137.468000",
          "184137.468000",
          "184137.468000",
          "184137.468000",
          "184137.468000",
          "184137.484000",
          "184137.484000",
          "184137.484000",
          "184137.500000",
          "184137.500000",
          "184137.500000",
          "184137.500000",
          "184137.500000",
          "184137.500000",
          "184137.515000",
          "184137.515000",
          "184137.515000",
          "184137.515000",
          "184137.515000",
          "184137.515000",
          "184237.453000",
          "184237.453000",
          "184237.453000",
          "184237.453000",
          "184237.453000",
          "184237.468000",
          "184237.468000",
          "184237.468000",
          "184237.468000",
          "184237.468000",
          "184237.468000",
          "184237.468000",
          "184237.468000",
          "184237.484000",
          "184237.484000",
          "184237.484000",
          "184237.484000",
          "184237.484000",
          "184237.484000",
          "184237.484000",
          "184237.500000",
          "184237.500000",
          "184237.500000",
          "184257.453000",
          "184257.453000",
          "184257.453000",
          "184257.453000",
          "184257.453000",
          "184257.468000",
          "184257.468000",
          "184257.468000",
          "184357.453000",
          "184357.453000",
          "184357.453000",
          "184357.453000",
          "184357.453000",
          "184357.468000",
          "184357.468000",
          "184357.468000",
          "184357.468000",
          "184357.468000",
          "184357.484000",
          "184357.484000",
          "184357.484000",
          "184357.484000",
          "184357.484000",
          "184357.484000",
          "184357.484000",
          "184357.500000",
          "184357.500000",
          "184357.500000",
          "184357.500000",
          "184357.500000",
          "184357.500000",
          "184411.203000",
          "184411.203000",
          "184411.203000",
          "184411.203000"
        ],
        "InstanceCreationTime": [
          "183537.453000",
          "183537.468000",
          "183537.468000",
          "183537.468000",
          "183537.468000",
          "183537.484000",
          "183537.484000",
          "183537.500000",
          "183537.500000",
          "183537.500000",
          "183537.500000",
          "183537.500000",
          "183537.500000",
          "183537.500000",
          "183537.500000",
          "183537.515000",
          "183537.515000",
          "183537.515000",
          "183537.515000",
          "183537.515000",
          "183637.453000",
          "183637.453000",
          "183637.453000",
          "183637.468000",
          "183637.468000",
          "183637.468000",
          "183637.468000",
          "183637.468000",
          "183637.468000",
          "183637.468000",
          "183637.484000",
          "183637.484000",
          "183637.484000",
          "183637.484000",
          "183637.484000",
          "183637.484000",
          "183637.484000",
          "183637.500000",
          "183637.500000",
          "183637.500000",
          "183637.500000",
          "183637.500000",
          "183637.500000",
          "183737.453000",
          "183737.453000",
          "183737.453000",
          "183737.453000",
          "183737.468000",
          "183737.468000",
          "183737.468000",
          "183737.468000",
          "183737.468000",
          "183737.468000",
          "183737.468000",
          "183737.468000",
          "183737.484000",
          "183737.484000",
          "183737.484000",
          "183737.484000",
          "183737.484000",
          "183737.484000",
          "183737.484000",
          "183737.500000",
          "183737.500000",
          "183737.500000",
          "183737.500000",
          "183837.453000",
          "183837.453000",
          "183837.453000",
          "183837.468000",
          "183837.468000",
          "183837.468000",
          "183837.468000",
          "183837.468000",
          "183837.468000",
          "183837.484000",
          "183837.484000",
          "183837.484000",
          "183837.484000",
          "183837.484000",
          "183837.484000",
          "183837.484000",
          "183837.484000",
          "183837.500000",
          "183837.500000",
          "183837.500000",
          "183837.500000",
          "183837.500000",
          "183837.500000",
          "183937.453000",
          "183937.453000",
          "183937.453000",
          "183937.468000",
          "183937.468000",
          "183937.468000",
          "183937.468000",
          "183937.484000",
          "183937.484000",
          "183937.484000",
          "183937.484000",
          "183937.484000",
          "183937.500000",
          "183937.500000",
          "183937.500000",
          "183937.500000",
          "183937.500000",
          "183937.500000",
          "183937.500000",
          "183937.515000",
          "183937.515000",
          "183937.515000",
          "183937.515000",
          "184037.453000",
          "184037.453000",
          "184037.453000",
          "184037.468000",
          "184037.468000",
          "184037.468000",
          "184037.468000",
          "184037.468000",
          "184037.468000",
          "184037.468000",
          "184037.468000",
          "184037.484000",
          "184037.484000",
          "184037.484000",
          "184037.484000",
          "184037.484000",
          "184037.484000",
          "184037.484000",
          "184037.500000",
          "184037.500000",
          "184037.500000",
          "184037.500000",
          "184037.500000",
          "184137.453000",
          "184137.453000",
          "184137.468000",
          "184137.468000",
          "184137.468000",
          "184137.468000",
          "184137.468000",
          "184137.468000",
          "184137.484000",
          "184137.484000",
          "184137.484000",
          "184137.500000",
          "184137.500000",
          "184137.500000",
          "184137.500000",
          "184137.500000",
          "184137.500000",
          "184137.515000",
          "184137.515000",
          "184137.515000",
          "184137.515000",
          "184137.515000",
          "184137.515000",
          "184237.453000",
          "184237.453000",
          "184237.453000",
          "184237.453000",
          "184237.453000",
          "184237.468000",
          "184237.468000",
          "184237.468000",
          "184237.468000",
          "184237.468000",
          "184237.468000",
          "184237.468000",
          "184237.468000",
          "184237.484000",
          "184237.484000",
          "184237.484000",
          "184237.484000",
          "184237.484000",
          "184237.484000",
          "184237.484000",
          "184237.500000",
          "184237.500000",
          "184237.500000",
          "184257.453000",
          "184257.453000",
          "184257.453000",
          "184257.453000",
          "184257.453000",
          "184257.468000",
          "184257.468000",
          "184257.468000",
          "184357.453000",
          "184357.453000",
          "184357.453000",
          "184357.453000",
          "184357.453000",
          "184357.468000",
          "184357.468000",
          "184357.468000",
          "184357.468000",
          "184357.468000",
          "184357.484000",
          "184357.484000",
          "184357.484000",
          "184357.484000",
          "184357.484000",
          "184357.484000",
          "184357.484000",
          "184357.500000",
          "184357.500000",
          "184357.500000",
          "184357.500000",
          "184357.500000",
          "184357.500000",
          "184411.203000",
          "184411.203000",
          "184411.203000",
          "184411.203000"
        ],
        "InstanceNumber": [
          1,
          2,
          3,
          4,
          5,
          6,
          7,
          8,
          9,
          10,
          11,
          12,
          13,
          14,
          15,
          16,
          17,
          18,
          19,
          20,
          21,
          22,
          23,
          24,
          25,
          26,
          27,
          28,
          29,
          30,
          31,
          32,
          33,
          34,
          35,
          36,
          37,
          38,
          39,
          40,
          41,
          42,
          43,
          44,
          45,
          46,
          47,
          48,
          49,
          50,
          51,
          52,
          53,
          54,
          55,
          56,
          57,
          58,
          59,
          60,
          61,
          62,
          63,
          64,
          65,
          66,
          67,
          68,
          69,
          70,
          71,
          72,
          73,
          74,
          75,
          76,
          77,
          78,
          79,
          80,
          81,
          82,
          83,
          84,
          85,
          86,
          87,
          88,
          89,
          90,
          91,
          92,
          93,
          94,
          95,
          96,
          97,
          98,
          99,
          100,
          101,
          102,
          103,
          104,
          105,
          106,
          107,
          108,
          109,
          110,
          111,
          112,
          113,
          114,
          115,
          116,
          117,
          118,
          119,
          120,
          121,
          122,
          123,
          124,
          125,
          126,
          127,
          128,
          129,
          130,
          131,
          132,
          133,
          134,
          135,
          136,
          137,
          138,
          139,
          140,
          141,
          142,
          143,
          144,
          145,
          146,
          147,
          148,
          149,
          150,
          151,
          152,
          153,
          154,
          155,
          156,
          157,
          158,
          159,
          160,
          161,
          162,
          163,
          164,
          165,
          166,
          167,
          168,
          169,
          170,
