{
  "aor": 0.0008140277777777777,
  "aqi": 0.014739772222222223,
  "bids_meta": {
    "AcquisitionMatrixPE": 188,
    "AcquisitionNumber": 1,
    "AcquisitionTime": "10:12:14.060000",
    "BandwidthPerPixelPhaseEncode": 19.46,
    "BaseResolution": 188,
    "ConversionSoftware": "dcm2niix",
    "ConversionSoftwareVersion": "v1.0.20180606 GCC4.8.5",
    "DelayTime": 1.2,
    "DerivedVendorReportedEchoSpacing": 0.000820013,
    "DeviceSerialNumber": "18930",
    "DwellTime": 1.9e-06,
    "EchoTime": 0.02,
    "EffectiveEchoSpacing": 0.000273338,
    "FlipAngle": 80,
    "ImageComments": "Unaliased_MB2_PE2",
    "ImageOrientationPatientDICOM": [
      0.999656,
      0.00483966,
      0.0257742,
      0.0252347,
      0.0899754,
      -0.995624
    ],
    "ImageType": [
      "ORIGINAL",
      "PRIMARY",
      "M",
      "MB",
      "ND",
      "MOSAIC"
    ],
    "InPlanePhaseEncodingDirectionDICOM": "COL",
    "InstitutionAddress": "Oxfordlaan_55_Maastricht_Limburg_NL_6229_EV",
    "InstitutionName": "Scannexus",
    "InstitutionalDepartmentName": "MRI_7T",
    "MRAcquisitionType": "2D",
    "MagneticFieldStrength": 6.98,
    "Manufacturer": "Siemens",
    "ManufacturersModelName": "Investigational_Device_7T",
    "Modality": "MR",
    "MultibandAccelerationFactor": 2,
    "ParallelReductionFactorInPlane": 3,
    "PartialFourier": 0.75,
    "PatientPosition": "HFS",
    "PercentPhaseFOV": 100,
    "PhaseEncodingDirection": "j",
    "PhaseEncodingSteps": 141,
    "PhaseResolution": 1,
    "PixelBandwidth": 1400,
    "ProcedureStepDescription": "FeDem_Faruk",
    "ProtocolName": "cmrr_mbep2d_bold_AP_run2",
    "PulseSequenceDetails": "%CustomerSeq%_cmrr_mbep2d_bold",
    "ReceiveCoilName": "32Ch_Head_7T",
    "ReconMatrixPE": 188,
    "RepetitionTime": 2.6,
    "SAR": 0.0943557,
    "ScanOptions": "PFP_FS",
    "ScanningSequence": "EP",
    "SequenceName": "epfid2d1_188",
    "SequenceVariant": "SK_SS",
    "SeriesDescription": "cmrr_mbep2d_bold_AP_run2",
    "SeriesNumber": 12,
    "ShimSetting": [
      170,
      -73,
      506,
      467,
      132,
      126,
      -201,
      91
    ],
    "SliceThickness": 1.1,
    "SliceTiming": [
      0,
      0.735,
      0.0625,
      0.795,
      0.1225,
      0.8575,
      0.185,
      0.9175,
      0.245,
      0.98,
      0.3075,
      1.04,
      0.3675,
      1.1,
      0.43,
      1.1625,
      0.49,
      1.2225,
      0.55,
      1.285,
      0.6125,
      1.345,
      0.6725,
      0,
      0.735,
      0.0625,
      0.795,
      0.1225,
      0.8575,
      0.185,
      0.9175,
      0.245,
      0.98,
      0.3075,
      1.04,
      0.3675,
      1.1,
      0.43,
      1.1625,
      0.49,
      1.2225,
      0.55,
      1.285,
      0.6125,
      1.345,
      0.6725
    ],
    "SoftwareVersions": "syngo_MR_B17",
    "SpacingBetweenSlices": 1.1,
    "StationName": "MRC18930",
    "TaskName": "auditory",
    "TotalReadoutTime": 0.0511141,
    "TxRefAmp": 255,
    "dataset": "ds001942",
    "dcmmeta_affine": [
      [
        -1.0953679084777832,
        0.027650779113173485,
        0.007851283065974712,
        99.74903106689453
      ],
      [
        -0.005303035490214825,
        0.09859009087085724,
        -1.0955246686935425,
        37.996952056884766
      ],
      [
        0.028241991996765137,
        1.0909500122070312,
        0.09880451112985611,
        -122.11209869384766
      ],
      [
        0.0,
        0.0,
        0.0,
        1.0
      ]
    ],
    "dcmmeta_reorient_transform": [
      [
        0.0,
        -1.0,
        0.0,
        187.0
      ],
      [
        1.0,
        0.0,
        0.0,
        0.0
      ],
      [
        0.0,
        0.0,
        1.0,
        0.0
      ],
      [
        0.0,
        0.0,
        0.0,
        1.0
      ]
    ],
    "dcmmeta_shape": [
      188,
      188,
      46,
      216
    ],
    "dcmmeta_slice_dim": 2,
    "dcmmeta_version": 0.6,
    "global": {
      "const": {
        "AcquisitionMatrix": [
          188,
          0,
          0,
          188
        ],
        "AngioFlag": "N",
        "BitsAllocated": 16,
        "BitsStored": 12,
        "Columns": 1316,
        "EchoNumbers": 1,
        "EchoTime": 20.0,
        "EchoTrainLength": 1,
        "FlipAngle": 80.0,
        "HighBit": 11,
        "ImageOrientationPatient": [
          0.99965607384139,
          0.00483966320692,
          0.02577424474271,
          0.02523469108055,
          0.0899754175988,
          -0.9956242436753
        ],
        "ImagePositionPatient": [
          -738.30224844347,
          -115.02902322183,
          681.2628794347
        ],
        "ImageType": [
          "ORIGINAL",
          "PRIMARY",
          "M",
          "MB",
          "ND",
          "MOSAIC"
        ],
        "ImagedNucleus": "1H",
        "ImagingFrequency": 297.205426,
        "InPlanePhaseEncodingDirection": "COL",
        "LargestImagePixelValue": 4095,
        "MRAcquisitionType": "2D",
        "MagneticFieldStrength": 6.98,
        "Manufacturer": "SIEMENS",
        "ManufacturerModelName": "Investigational_Device_7T",
        "Modality": "MR",
        "NumberOfAverages": 1.0,
        "NumberOfPhaseEncodingSteps": 141,
        "PercentPhaseFieldOfView": 100.0,
        "PercentSampling": 100.0,
        "PerformedProcedureStepStartTime": "092300.593000",
        "PhotometricInterpretation": "MONOCHROME2",
        "PixelBandwidth": 1400.0,
        "PixelRepresentation": 0,
        "PixelSpacing": [
          1.0957447290421,
          1.0957447290421
        ],
        "ProtocolName": "cmrr_mbep2d_bold_AP_run2",
        "RepetitionTime": 2600.0,
        "Rows": 1316,
        "SAR": 0.0943556590732,
        "SamplesPerPixel": 1,
        "ScanOptions": [
          "PFP",
          "FS"
        ],
        "ScanningSequence": "EP",
        "SequenceName": "epfid2d1_188",
        "SequenceVariant": [
          "SK",
          "SS"
        ],
        "SeriesDescription": "cmrr_mbep2d_bold_AP_run2",
        "SeriesNumber": 12,
        "SeriesTime": "101308.218000",
        "SliceLocation": -48.098824003373,
        "SliceThickness": 1.1000000238419,
        "SmallestImagePixelValue": 0,
        "SoftwareVersions": "syngo MR B17",
        "SpacingBetweenSlices": 1.0999992668225,
        "SpecificCharacterSet": "ISO_IR 100",
        "StudyID": "1",
        "StudyTime": "092300.546000",
        "TransmitCoilName": "32Ch_Head_7T",
        "VariableFlipAngleFlag": "N",
        "WindowCenterWidthExplanation": "Algo1",
        "dBdt": 0.0
      },
      "slices": {}
    },
    "modality": "bold",
    "run_id": 2,
    "session_id": "SES04",
    "subject_id": "S02",
    "task_id": "auditory",
    "time": {
      "samples": {
        "AcquisitionNumber": [
          1,
          2,
          3,
          4,
          5,
          6,
          7,
          8,
          9,
          10,
          11,
          12,
          13,
          14,
          15,
          16,
          17,
          18,
          19,
          20,
          21,
          22,
          23,
          24,
          25,
          26,
          27,
          28,
          29,
          30,
          31,
          32,
          33,
          34,
          35,
          36,
          37,
          38,
          39,
          40,
          41,
          42,
          43,
          44,
          45,
          46,
          47,
          48,
          49,
          50,
          51,
          52,
          53,
          54,
          55,
          56,
          57,
          58,
          59,
          60,
          61,
          62,
          63,
          64,
          65,
          66,
          67,
          68,
          69,
          70,
          71,
          72,
          73,
          74,
          75,
          76,
          77,
          78,
          79,
          80,
          81,
          82,
          83,
          84,
          85,
          86,
          87,
          88,
          89,
          90,
          91,
          92,
          93,
          94,
          95,
          96,
          97,
          98,
          99,
          100,
          101,
          102,
          103,
          104,
          105,
          106,
          107,
          108,
          109,
          110,
          111,
          112,
          113,
          114,
          115,
          116,
          117,
          118,
          119,
          120,
          121,
          122,
          123,
          124,
          125,
          126,
          127,
          128,
          129,
          130,
          131,
          132,
          133,
          134,
          135,
          136,
          137,
          138,
          139,
          140,
          141,
          142,
          143,
          144,
          145,
          146,
          147,
          148,
          149,
          150,
          151,
          152,
          153,
          154,
          155,
          156,
          157,
          158,
          159,
          160,
          161,
          162,
          163,
          164,
          165,
          166,
          167,
          168,
          169,
          170,
          171,
          172,
          173,
          174,
          175,
          176,
          177,
          178,
          179,
          180,
          181,
          182,
          183,
          184,
          185,
          186,
          187,
          188,
          189,
          190,
          191,
          192,
          193,
          194,
          195,
          196,
          197,
          198,
          199,
          200,
          201,
          202,
          203,
          204,
          205,
          206,
          207,
          208,
          209,
          210,
          211,
          212,
          213,
          214,
          215,
          216
        ],
        "AcquisitionTime": [
          "101214.060000",
          "101216.672500",
          "101219.282500",
          "101221.892500",
          "101224.502500",
          "101227.112500",
          "101229.722500",
          "101232.335000",
          "101234.945000",
          "101237.555000",
          "101240.165000",
          "101242.775000",
          "101245.387500",
          "101247.997500",
          "101250.607500",
          "101253.217500",
          "101255.827500",
          "101258.437500",
          "101301.050000",
          "101303.660000",
          "101306.270000",
          "101308.880000",
          "101311.490000",
          "101314.102500",
          "101316.712500",
          "101319.322500",
          "101321.932500",
          "101324.542500",
          "101327.152500",
          "101329.765000",
          "101332.375000",
          "101334.985000",
          "101337.595000",
          "101340.205000",
          "101342.815000",
          "101345.427500",
          "101348.037500",
          "101350.647500",
          "101353.257500",
          "101355.867500",
          "101358.480000",
          "101401.090000",
          "101403.700000",
          "101406.310000",
          "101408.920000",
          "101411.530000",
          "101414.142500",
          "101416.752500",
          "101419.362500",
          "101421.972500",
          "101424.582500",
          "101427.192500",
          "101429.805000",
          "101432.415000",
          "101435.025000",
          "101437.635000",
          "101440.245000",
          "101442.857500",
          "101445.467500",
          "101448.077500",
          "101450.687500",
          "101453.297500",
          "101455.907500",
          "101458.520000",
          "101501.130000",
          "101503.740000",
          "101506.350000",
          "101508.960000",
          "101511.570000",
          "101514.182500",
          "101516.792500",
          "101519.402500",
          "101522.012500",
          "101524.622500",
          "101527.235000",
          "101529.845000",
          "101532.455000",
          "101535.065000",
          "101537.675000",
          "101540.285000",
          "101542.897500",
          "101545.507500",
          "101548.117500",
          "101550.727500",
          "101553.337500",
          "101555.947500",
          "101558.560000",
          "101601.170000",
          "101603.780000",
          "101606.390000",
          "101609.000000",
          "101611.612500",
          "101614.222500",
          "101616.832500",
          "101619.442500",
          "101622.052500",
          "101624.662500",
          "101627.275000",
          "101629.885000",
          "101632.495000",
          "101635.105000",
          "101637.715000",
          "101640.325000",
          "101642.937500",
          "101645.547500",
          "101648.157500",
          "101650.767500",
          "101653.377500",
          "101655.990000",
          "101658.600000",
          "101701.210000",
          "101703.820000",
          "101706.430000",
          "101709.040000",
          "101711.652500",
          "101714.262500",
          "101716.872500",
          "101719.482500",
          "101722.092500",
          "101724.702500",
          "101727.315000",
          "101729.925000",
          "101732.535000",
          "101735.145000",
          "101737.755000",
          "101740.367500",
          "101742.977500",
          "101745.587500",
          "101748.197500",
          "101750.807500",
          "101753.417500",
          "101756.030000",
          "101758.640000",
          "101801.250000",
          "101803.860000",
          "101806.470000",
          "101809.080000",
          "101811.692500",
          "101814.302500",
          "101816.912500",
          "101819.522500",
          "101822.132500",
          "101824.745000",
          "101827.355000",
          "101829.965000",
          "101832.575000",
          "101835.185000",
          "101837.795000",
          "101840.407500",
          "101843.017500",
          "101845.627500",
          "101848.237500",
          "101850.847500",
          "101853.457500",
          "101856.070000",
          "101858.680000",
          "101901.290000",
          "101903.900000",
          "101906.510000",
          "101909.122500",
          "101911.732500",
          "101914.342500",
          "101916.952500",
          "101919.562500",
          "101922.172500",
          "101924.785000",
          "101927.395000",
          "101930.005000",
          "101932.615000",
          "101935.225000",
          "101937.835000",
          "101940.447500",
          "101943.057500",
          "101945.667500",
          "101948.277500",
          "101950.887500",
          "101953.500000",
          "101956.110000",
          "101958.720000",
          "102001.330000",
          "102003.940000",
          "102006.550000",
          "102009.162500",
          "102011.772500",
          "102014.382500",
          "102016.992500",
          "102019.602500",
          "102022.212500",
          "102024.825000",
          "102027.435000",
          "102030.045000",
          "102032.655000",
          "102035.265000",
          "102037.877500",
          "102040.487500",
          "102043.097500",
          "102045.707500",
          "102048.317500",
          "102050.927500",
          "102053.540000",
          "102056.150000",
          "102058.760000",
          "102101.370000",
          "102103.980000",
          "102106.590000",
          "102109.202500",
          "102111.812500",
          "102114.422500",
          "102117.032500",
          "102119.642500",
          "102122.255000",
          "102124.865000",
          "102127.475000",
          "102130.085000",
          "102132.695000",
          "102135.305000"
        ],
        "ContentTime": [
          "101308.218000",
          "101308.218000",
          "101308.234000",
          "101308.234000",
          "101308.234000",
          "101308.234000",
          "101308.234000",
          "101308.234000",
          "101308.250000",
          "101308.250000",
          "101308.250000",
          "101308.250000",
          "101308.250000",
          "101308.250000",
          "101308.250000",
          "101308.265000",
          "101308.265000",
          "101308.265000",
          "101308.265000",
          "101308.265000",
          "101408.218000",
          "101408.218000",
          "101408.218000",
          "101408.218000",
          "101408.218000",
          "101408.218000",
          "101408.218000",
          "101408.234000",
          "101408.234000",
          "101408.234000",
          "101408.234000",
          "101408.234000",
          "101408.234000",
          "101408.234000",
          "101408.234000",
          "101408.250000",
          "101408.250000",
          "101408.250000",
          "101408.250000",
          "101408.250000",
          "101408.250000",
          "101408.250000",
          "101408.265000",
          "101508.218000",
          "101508.218000",
          "101508.218000",
          "101508.218000",
          "101508.218000",
          "101508.234000",
          "101508.234000",
          "101508.234000",
          "101508.234000",
          "101508.234000",
          "101508.234000",
          "101508.234000",
          "101508.250000",
          "101508.250000",
          "101508.250000",
          "101508.250000",
          "101508.250000",
          "101508.250000",
          "101508.250000",
          "101508.250000",
          "101508.265000",
          "101508.265000",
          "101508.265000",
          "101608.218000",
          "101608.218000",
          "101608.218000",
          "101608.218000",
          "101608.218000",
          "101608.218000",
          "101608.218000",
          "101608.234000",
          "101608.234000",
          "101608.234000",
          "101608.234000",
          "101608.234000",
          "101608.234000",
          "101608.250000",
          "101608.250000",
          "101608.250000",
          "101608.250000",
          "101608.250000",
          "101608.250000",
          "101608.250000",
          "101608.265000",
          "101608.265000",
          "101608.265000",
          "101708.203000",
          "101708.218000",
          "101708.218000",
          "101708.218000",
          "101708.218000",
          "101708.218000",
          "101708.218000",
          "101708.234000",
          "101708.234000",
          "101708.234000",
          "101708.234000",
          "101708.234000",
          "101708.234000",
          "101708.234000",
          "101708.250000",
          "101708.250000",
          "101708.250000",
          "101708.250000",
          "101708.250000",
          "101708.250000",
          "101708.250000",
          "101708.265000",
          "101708.265000",
          "101808.218000",
          "101808.218000",
          "101808.218000",
          "101808.218000",
          "101808.218000",
          "101808.218000",
          "101808.218000",
          "101808.234000",
          "101808.234000",
          "101808.234000",
          "101808.234000",
          "101808.234000",
          "101808.234000",
          "101808.234000",
          "101808.250000",
          "101808.250000",
          "101808.250000",
          "101808.250000",
          "101808.250000",
          "101808.250000",
          "101808.250000",
          "101808.265000",
          "101808.265000",
          "101908.218000",
          "101908.218000",
          "101908.218000",
          "101908.218000",
          "101908.218000",
          "101908.218000",
          "101908.218000",
          "101908.234000",
          "101908.234000",
          "101908.234000",
          "101908.234000",
          "101908.234000",
          "101908.234000",
          "101908.234000",
          "101908.234000",
          "101908.250000",
          "101908.250000",
          "101908.250000",
          "101908.250000",
          "101908.250000",
          "101908.250000",
          "101908.250000",
          "101908.265000",
          "102008.218000",
          "102008.218000",
          "102008.218000",
          "102008.218000",
          "102008.218000",
          "102008.218000",
          "102008.218000",
          "102008.234000",
          "102008.234000",
          "102008.234000",
          "102008.234000",
          "102008.234000",
          "102008.234000",
          "102008.234000",
          "102008.234000",
          "102008.250000",
          "102008.250000",
          "102008.250000",
          "102008.250000",
          "102008.250000",
          "102008.250000",
          "102008.250000",
          "102008.265000",
          "102108.218000",
          "102108.218000",
          "102108.218000",
          "102108.218000",
          "102108.218000",
          "102108.218000",
          "102108.234000",
          "102108.234000",
          "102108.234000",
          "102108.234000",
          "102108.250000",
          "102108.250000",
          "102108.250000",
          "102108.250000",
          "102108.250000",
          "102108.250000",
          "102108.250000",
          "102108.265000",
          "102108.265000",
          "102108.265000",
          "102108.265000",
          "102108.265000",
          "102108.265000",
          "102142.609000",
          "102142.609000",
          "102142.625000",
          "102142.625000",
          "102142.625000",
          "102142.625000",
          "102142.625000",
          "102142.625000",
          "102142.640000",
          "102142.640000",
          "102142.640000",
          "102142.640000"
        ],
        "InstanceCreationTime": [
          "101308.218000",
          "101308.218000",
          "101308.234000",
          "101308.234000",
          "101308.234000",
          "101308.234000",
          "101308.234000",
          "101308.234000",
          "101308.250000",
          "101308.250000",
          "101308.250000",
          "101308.250000",
          "101308.250000",
          "101308.250000",
          "101308.250000",
          "101308.265000",
          "101308.265000",
          "101308.265000",
          "101308.265000",
          "101308.265000",
          "101408.218000",
          "101408.218000",
          "101408.218000",
          "101408.218000",
          "101408.218000",
          "101408.218000",
          "101408.218000",
          "101408.234000",
          "101408.234000",
          "101408.234000",
          "101408.234000",
          "101408.234000",
          "101408.234000",
          "101408.234000",
          "101408.234000",
          "101408.250000",
          "101408.250000",
          "101408.250000",
          "101408.250000",
          "101408.250000",
          "101408.250000",
          "101408.250000",
          "101408.265000",
          "101508.218000",
          "101508.218000",
          "101508.218000",
          "101508.218000",
          "101508.218000",
          "101508.234000",
          "101508.234000",
          "101508.234000",
          "101508.234000",
          "101508.234000",
          "101508.234000",
          "101508.234000",
          "101508.250000",
          "101508.250000",
          "101508.250000",
          "101508.250000",
          "101508.250000",
          "101508.250000",
          "101508.250000",
          "101508.250000",
          "101508.265000",
          "101508.265000",
          "101508.265000",
          "101608.218000",
          "101608.218000",
          "101608.218000",
          "101608.218000",
          "101608.218000",
          "101608.218000",
          "101608.218000",
          "101608.234000",
          "101608.234000",
          "101608.234000",
          "101608.234000",
          "101608.234000",
          "101608.234000",
          "101608.250000",
          "101608.250000",
          "101608.250000",
          "101608.250000",
          "101608.250000",
          "101608.250000",
          "101608.250000",
          "101608.265000",
          "101608.265000",
          "101608.265000",
          "101708.203000",
          "101708.218000",
          "101708.218000",
          "101708.218000",
          "101708.218000",
          "101708.218000",
          "101708.218000",
          "101708.234000",
          "101708.234000",
          "101708.234000",
          "101708.234000",
          "101708.234000",
          "101708.234000",
          "101708.234000",
          "101708.250000",
          "101708.250000",
          "101708.250000",
          "101708.250000",
          "101708.250000",
          "101708.250000",
          "101708.250000",
          "101708.265000",
          "101708.265000",
          "101808.218000",
          "101808.218000",
          "101808.218000",
          "101808.218000",
          "101808.218000",
          "101808.218000",
          "101808.218000",
          "101808.234000",
          "101808.234000",
          "101808.234000",
          "101808.234000",
          "101808.234000",
          "101808.234000",
          "101808.234000",
          "101808.250000",
          "101808.250000",
          "101808.250000",
          "101808.250000",
          "101808.250000",
          "101808.250000",
          "101808.250000",
          "101808.265000",
          "101808.265000",
          "101908.218000",
          "101908.218000",
          "101908.218000",
          "101908.218000",
          "101908.218000",
          "101908.218000",
          "101908.218000",
          "101908.234000",
          "101908.234000",
          "101908.234000",
          "101908.234000",
          "101908.234000",
          "101908.234000",
          "101908.234000",
          "101908.234000",
          "101908.250000",
          "101908.250000",
          "101908.250000",
          "101908.250000",
          "101908.250000",
          "101908.250000",
          "101908.250000",
          "101908.265000",
          "102008.218000",
          "102008.218000",
          "102008.218000",
          "102008.218000",
          "102008.218000",
          "102008.218000",
          "102008.218000",
          "102008.234000",
          "102008.234000",
          "102008.234000",
          "102008.234000",
          "102008.234000",
          "102008.234000",
          "102008.234000",
          "102008.234000",
          "102008.250000",
          "102008.250000",
          "102008.250000",
          "102008.250000",
          "102008.250000",
          "102008.250000",
          "102008.250000",
          "102008.265000",
          "102108.218000",
          "102108.218000",
          "102108.218000",
          "102108.218000",
          "102108.218000",
          "102108.218000",
          "102108.234000",
          "102108.234000",
          "102108.234000",
          "102108.234000",
          "102108.250000",
          "102108.250000",
          "102108.250000",
          "102108.250000",
          "102108.250000",
          "102108.250000",
          "102108.250000",
          "102108.265000",
          "102108.265000",
          "102108.265000",
          "102108.265000",
          "102108.265000",
          "102108.265000",
          "102142.609000",
          "102142.609000",
          "102142.625000",
          "102142.625000",
          "102142.625000",
          "102142.625000",
          "102142.625000",
          "102142.625000",
          "102142.640000",
          "102142.640000",
          "102142.640000",
          "102142.640000"
        ],
        "InstanceNumber": [
          1,
          2,
          3,
          4,
          5,
          6,
          7,
          8,
          9,
          10,
          11,
          12,
          13,
          14,
          15,
          16,
          17,
          18,
          19,
          20,
          21,
          22,
          23,
          24,
          25,
          26,
          27,
          28,
          29,
          30,
          31,
          32,
          33,
          34,
          35,
          36,
          37,
          38,
          39,
          40,
          41,
          42,
          43,
          44,
          45,
          46,
          47,
          48,
          49,
          50,
          51,
          52,
          53,
          54,
          55,
          56,
          57,
          58,
          59,
          60,
          61,
          62,
          63,
          64,
          65,
          66,
          67,
          68,
          69,
          70,
          71,
          72,
          73,
          74,
          75,
          76,
          77,
          78,
          79,
          80,
          81,
          82,
          83,
          84,
          85,
          86,
          87,
          88,
          89,
          90,
          91,
          92,
          93,
          94,
          95,
          96,
          97,
          98,
          99,
          100,
          101,
          102,
          103,
          104,
          105,
          106,
          107,
          108,
          109,
          110,
          111,
          112,
          113,
          114,
          115,
          116,
          117,
          118,
          119,
          120,
          121,
          122,
          123,
          124,
          125,
          126,
          127,
          128,
          129,
          130,
          131,
          132,
          133,
          134,
          135,
          136,
          137,
          138,
          139,
          140,
          141,
          142,
          143,
          144,
          145,
          146,
          147,
          148,
          149,
          150,
          151,
          152,
          153,
          154,
          155,
          156,
          157,
          158,
          159,
          160,
          161,
          162,
          163,
          164,
          165,
          166,
          167,
          168,
          169,
          170,
