{
  "aor": 0.0006972685185185185,
  "aqi": 0.012689738425925925,
  "bids_meta": {
    "AcquisitionMatrixPE": 188,
    "AcquisitionNumber": 1,
    "AcquisitionTime": "10:54:57.737500",
    "BandwidthPerPixelPhaseEncode": 19.46,
    "BaseResolution": 188,
    "ConversionSoftware": "dcm2niix",
    "ConversionSoftwareVersion": "v1.0.20180606 GCC4.8.5",
    "DelayTime": 1.2,
    "DerivedVendorReportedEchoSpacing": 0.000820013,
    "DeviceSerialNumber": "18930",
    "DwellTime": 1.9e-06,
    "EchoTime": 0.02,
    "EffectiveEchoSpacing": 0.000273338,
    "FlipAngle": 80,
    "ImageComments": "Unaliased_MB2_PE2",
    "ImageOrientationPatientDICOM": [
      0.999656,
      0.00483966,
      0.0257742,
      0.0252347,
      0.0899754,
      -0.995624
    ],
    "ImageType": [
      "ORIGINAL",
      "PRIMARY",
      "M",
      "MB",
      "ND",
      "MOSAIC"
    ],
    "InPlanePhaseEncodingDirectionDICOM": "COL",
    "InstitutionAddress": "Oxfordlaan_55_Maastricht_Limburg_NL_6229_EV",
    "InstitutionName": "Scannexus",
    "InstitutionalDepartmentName": "MRI_7T",
    "MRAcquisitionType": "2D",
    "MagneticFieldStrength": 6.98,
    "Manufacturer": "Siemens",
    "ManufacturersModelName": "Investigational_Device_7T",
    "Modality": "MR",
    "MultibandAccelerationFactor": 2,
    "ParallelReductionFactorInPlane": 3,
    "PartialFourier": 0.75,
    "PatientPosition": "HFS",
    "PercentPhaseFOV": 100,
    "PhaseEncodingDirection": "j",
    "PhaseEncodingSteps": 141,
    "PhaseResolution": 1,
    "PixelBandwidth": 1400,
    "ProcedureStepDescription": "FeDem_Faruk",
    "ProtocolName": "cmrr_mbep2d_bold_AP_run6",
    "PulseSequenceDetails": "%CustomerSeq%_cmrr_mbep2d_bold",
    "ReceiveCoilName": "32Ch_Head_7T",
    "ReconMatrixPE": 188,
    "RepetitionTime": 2.6,
    "SAR": 0.0932237,
    "ScanOptions": "PFP_FS",
    "ScanningSequence": "EP",
    "SequenceName": "epfid2d1_188",
    "SequenceVariant": "SK_SS",
    "SeriesDescription": "cmrr_mbep2d_bold_AP_run6",
    "SeriesNumber": 16,
    "ShimSetting": [
      170,
      -73,
      506,
      467,
      132,
      126,
      -201,
      91
    ],
    "SliceThickness": 1.1,
    "SliceTiming": [
      0,
      0.735,
      0.0625,
      0.795,
      0.1225,
      0.855,
      0.185,
      0.9175,
      0.245,
      0.9775,
      0.305,
      1.04,
      0.3675,
      1.1,
      0.4275,
      1.1625,
      0.49,
      1.2225,
      0.55,
      1.285,
      0.6125,
      1.345,
      0.6725,
      0,
      0.735,
      0.0625,
      0.795,
      0.1225,
      0.855,
      0.185,
      0.9175,
      0.245,
      0.9775,
      0.305,
      1.04,
      0.3675,
      1.1,
      0.4275,
      1.1625,
      0.49,
      1.2225,
      0.55,
      1.285,
      0.6125,
      1.345,
      0.6725
    ],
    "SoftwareVersions": "syngo_MR_B17",
    "SpacingBetweenSlices": 1.1,
    "StationName": "MRC18930",
    "TaskName": "auditory",
    "TotalReadoutTime": 0.0511141,
    "TxRefAmp": 255,
    "dataset": "ds001942",
    "dcmmeta_affine": [
      [
        -1.0953679084777832,
        0.027650779113173485,
        0.007851283065974712,
        99.74903106689453
      ],
      [
        -0.005303035490214825,
        0.09859009087085724,
        -1.0955246686935425,
        37.996952056884766
      ],
      [
        0.028241991996765137,
        1.0909500122070312,
        0.09880451112985611,
        -122.11209869384766
      ],
      [
        0.0,
        0.0,
        0.0,
        1.0
      ]
    ],
    "dcmmeta_reorient_transform": [
      [
        0.0,
        -1.0,
        0.0,
        187.0
      ],
      [
        1.0,
        0.0,
        0.0,
        0.0
      ],
      [
        0.0,
        0.0,
        1.0,
        0.0
      ],
      [
        0.0,
        0.0,
        0.0,
        1.0
      ]
    ],
    "dcmmeta_shape": [
      188,
      188,
      46,
      216
    ],
    "dcmmeta_slice_dim": 2,
    "dcmmeta_version": 0.6,
    "global": {
      "const": {
        "AcquisitionMatrix": [
          188,
          0,
          0,
          188
        ],
        "AngioFlag": "N",
        "BitsAllocated": 16,
        "BitsStored": 12,
        "Columns": 1316,
        "EchoNumbers": 1,
        "EchoTime": 20.0,
        "EchoTrainLength": 1,
        "FlipAngle": 80.0,
        "HighBit": 11,
        "ImageOrientationPatient": [
          0.99965607384139,
          0.00483966320692,
          0.02577424474271,
          0.02523469108055,
          0.0899754175988,
          -0.9956242436753
        ],
        "ImagePositionPatient": [
          -738.30224844347,
          -115.02902322183,
          681.2628794347
        ],
        "ImageType": [
          "ORIGINAL",
          "PRIMARY",
          "M",
          "MB",
          "ND",
          "MOSAIC"
        ],
        "ImagedNucleus": "1H",
        "ImagingFrequency": 297.205446,
        "InPlanePhaseEncodingDirection": "COL",
        "LargestImagePixelValue": 4095,
        "MRAcquisitionType": "2D",
        "MagneticFieldStrength": 6.98,
        "Manufacturer": "SIEMENS",
        "ManufacturerModelName": "Investigational_Device_7T",
        "Modality": "MR",
        "NumberOfAverages": 1.0,
        "NumberOfPhaseEncodingSteps": 141,
        "PercentPhaseFieldOfView": 100.0,
        "PercentSampling": 100.0,
        "PerformedProcedureStepStartTime": "092300.593000",
        "PhotometricInterpretation": "MONOCHROME2",
        "PixelBandwidth": 1400.0,
        "PixelRepresentation": 0,
        "PixelSpacing": [
          1.0957447290421,
          1.0957447290421
        ],
        "ProtocolName": "cmrr_mbep2d_bold_AP_run6",
        "RepetitionTime": 2600.0,
        "Rows": 1316,
        "SAR": 0.09322367519888,
        "SamplesPerPixel": 1,
        "ScanOptions": [
          "PFP",
          "FS"
        ],
        "ScanningSequence": "EP",
        "SequenceName": "epfid2d1_188",
        "SequenceVariant": [
          "SK",
          "SS"
        ],
        "SeriesDescription": "cmrr_mbep2d_bold_AP_run6",
        "SeriesNumber": 16,
        "SeriesTime": "105555.921000",
        "SliceLocation": -48.098824003373,
        "SliceThickness": 1.1000000238419,
        "SmallestImagePixelValue": 0,
        "SoftwareVersions": "syngo MR B17",
        "SpacingBetweenSlices": 1.0999992668225,
        "SpecificCharacterSet": "ISO_IR 100",
        "StudyID": "1",
        "StudyTime": "092300.546000",
        "TransmitCoilName": "32Ch_Head_7T",
        "VariableFlipAngleFlag": "N",
        "WindowCenterWidthExplanation": "Algo1",
        "dBdt": 0.0
      },
      "slices": {}
    },
    "modality": "bold",
    "run_id": 6,
    "session_id": "SES04",
    "subject_id": "S02",
    "task_id": "auditory",
    "time": {
      "samples": {
        "AcquisitionNumber": [
          1,
          2,
          3,
          4,
          5,
          6,
          7,
          8,
          9,
          10,
          11,
          12,
          13,
          14,
          15,
          16,
          17,
          18,
          19,
          20,
          21,
          22,
          23,
          24,
          25,
          26,
          27,
          28,
          29,
          30,
          31,
          32,
          33,
          34,
          35,
          36,
          37,
          38,
          39,
          40,
          41,
          42,
          43,
          44,
          45,
          46,
          47,
          48,
          49,
          50,
          51,
          52,
          53,
          54,
          55,
          56,
          57,
          58,
          59,
          60,
          61,
          62,
          63,
          64,
          65,
          66,
          67,
          68,
          69,
          70,
          71,
          72,
          73,
          74,
          75,
          76,
          77,
          78,
          79,
          80,
          81,
          82,
          83,
          84,
          85,
          86,
          87,
          88,
          89,
          90,
          91,
          92,
          93,
          94,
          95,
          96,
          97,
          98,
          99,
          100,
          101,
          102,
          103,
          104,
          105,
          106,
          107,
          108,
          109,
          110,
          111,
          112,
          113,
          114,
          115,
          116,
          117,
          118,
          119,
          120,
          121,
          122,
          123,
          124,
          125,
          126,
          127,
          128,
          129,
          130,
          131,
          132,
          133,
          134,
          135,
          136,
          137,
          138,
          139,
          140,
          141,
          142,
          143,
          144,
          145,
          146,
          147,
          148,
          149,
          150,
          151,
          152,
          153,
          154,
          155,
          156,
          157,
          158,
          159,
          160,
          161,
          162,
          163,
          164,
          165,
          166,
          167,
          168,
          169,
          170,
          171,
          172,
          173,
          174,
          175,
          176,
          177,
          178,
          179,
          180,
          181,
          182,
          183,
          184,
          185,
          186,
          187,
          188,
          189,
          190,
          191,
          192,
          193,
          194,
          195,
          196,
          197,
          198,
          199,
          200,
          201,
          202,
          203,
          204,
          205,
          206,
          207,
          208,
          209,
          210,
          211,
          212,
          213,
          214,
          215,
          216
        ],
        "AcquisitionTime": [
          "105457.737500",
          "105500.347500",
          "105502.960000",
          "105505.570000",
          "105508.180000",
          "105510.790000",
          "105513.400000",
          "105516.012500",
          "105518.622500",
          "105521.232500",
          "105523.842500",
          "105526.452500",
          "105529.062500",
          "105531.675000",
          "105534.285000",
          "105536.895000",
          "105539.505000",
          "105542.115000",
          "105544.725000",
          "105547.337500",
          "105549.947500",
          "105552.557500",
          "105555.167500",
          "105557.777500",
          "105600.390000",
          "105603.000000",
          "105605.610000",
          "105608.220000",
          "105610.830000",
          "105613.440000",
          "105616.052500",
          "105618.662500",
          "105621.272500",
          "105623.882500",
          "105626.492500",
          "105629.102500",
          "105631.715000",
          "105634.325000",
          "105636.935000",
          "105639.545000",
          "105642.155000",
          "105644.767500",
          "105647.377500",
          "105649.987500",
          "105652.597500",
          "105655.207500",
          "105657.817500",
          "105700.430000",
          "105703.040000",
          "105705.650000",
          "105708.260000",
          "105710.870000",
          "105713.480000",
          "105716.092500",
          "105718.702500",
          "105721.312500",
          "105723.922500",
          "105726.532500",
          "105729.145000",
          "105731.755000",
          "105734.365000",
          "105736.975000",
          "105739.585000",
          "105742.195000",
          "105744.807500",
          "105747.417500",
          "105750.027500",
          "105752.637500",
          "105755.247500",
          "105757.857500",
          "105800.470000",
          "105803.080000",
          "105805.690000",
          "105808.300000",
          "105810.910000",
          "105813.522500",
          "105816.132500",
          "105818.742500",
          "105821.352500",
          "105823.962500",
          "105826.572500",
          "105829.185000",
          "105831.795000",
          "105834.405000",
          "105837.015000",
          "105839.625000",
          "105842.235000",
          "105844.847500",
          "105847.457500",
          "105850.067500",
          "105852.677500",
          "105855.287500",
          "105857.900000",
          "105900.510000",
          "105903.120000",
          "105905.730000",
          "105908.340000",
          "105910.950000",
          "105913.562500",
          "105916.172500",
          "105918.782500",
          "105921.392500",
          "105924.002500",
          "105926.612500",
          "105929.225000",
          "105931.835000",
          "105934.445000",
          "105937.055000",
          "105939.665000",
          "105942.277500",
          "105944.887500",
          "105947.497500",
          "105950.107500",
          "105952.717500",
          "105955.327500",
          "105957.940000",
          "110000.550000",
          "110003.160000",
          "110005.770000",
          "110008.380000",
          "110010.990000",
          "110013.602500",
          "110016.212500",
          "110018.822500",
          "110021.432500",
          "110024.042500",
          "110026.655000",
          "110029.265000",
          "110031.875000",
          "110034.485000",
          "110037.095000",
          "110039.705000",
          "110042.317500",
          "110044.927500",
          "110047.537500",
          "110050.147500",
          "110052.757500",
          "110055.367500",
          "110057.980000",
          "110100.590000",
          "110103.200000",
          "110105.810000",
          "110108.420000",
          "110111.032500",
          "110113.642500",
          "110116.252500",
          "110118.862500",
          "110121.472500",
          "110124.082500",
          "110126.695000",
          "110129.305000",
          "110131.915000",
          "110134.525000",
          "110137.135000",
          "110139.745000",
          "110142.357500",
          "110144.967500",
          "110147.577500",
          "110150.187500",
          "110152.797500",
          "110155.410000",
          "110158.020000",
          "110200.630000",
          "110203.240000",
          "110205.850000",
          "110208.460000",
          "110211.072500",
          "110213.682500",
          "110216.292500",
          "110218.902500",
          "110221.512500",
          "110224.122500",
          "110226.735000",
          "110229.345000",
          "110231.955000",
          "110234.565000",
          "110237.175000",
          "110239.787500",
          "110242.397500",
          "110245.007500",
          "110247.617500",
          "110250.227500",
          "110252.837500",
          "110255.450000",
          "110258.060000",
          "110300.670000",
          "110303.280000",
          "110305.890000",
          "110308.500000",
          "110311.112500",
          "110313.722500",
          "110316.332500",
          "110318.942500",
          "110321.552500",
          "110324.165000",
          "110326.775000",
          "110329.385000",
          "110331.995000",
          "110334.605000",
          "110337.215000",
          "110339.827500",
          "110342.437500",
          "110345.047500",
          "110347.657500",
          "110350.267500",
          "110352.880000",
          "110355.490000",
          "110358.100000",
          "110400.710000",
          "110403.320000",
          "110405.930000",
          "110408.542500",
          "110411.152500",
          "110413.762500",
          "110416.372500",
          "110418.982500"
        ],
        "ContentTime": [
          "105555.921000",
          "105555.937000",
          "105555.937000",
          "105555.937000",
          "105555.937000",
          "105555.937000",
          "105555.937000",
          "105555.937000",
          "105555.953000",
          "105555.953000",
          "105555.953000",
          "105555.953000",
          "105555.953000",
          "105555.953000",
          "105555.953000",
          "105555.953000",
          "105555.968000",
          "105555.968000",
          "105555.968000",
          "105555.968000",
          "105555.968000",
          "105655.906000",
          "105655.921000",
          "105655.921000",
          "105655.921000",
          "105655.921000",
          "105655.921000",
          "105655.921000",
          "105655.921000",
          "105655.937000",
          "105655.937000",
          "105655.937000",
          "105655.937000",
          "105655.937000",
          "105655.937000",
          "105655.953000",
          "105655.953000",
          "105655.953000",
          "105655.953000",
          "105655.968000",
          "105655.968000",
          "105655.968000",
          "105655.968000",
          "105655.968000",
          "105755.921000",
          "105755.921000",
          "105755.921000",
          "105755.921000",
          "105755.921000",
          "105755.921000",
          "105755.937000",
          "105755.937000",
          "105755.937000",
          "105755.937000",
          "105755.937000",
          "105755.937000",
          "105755.937000",
          "105755.953000",
          "105755.953000",
          "105755.953000",
          "105755.953000",
          "105755.953000",
          "105755.953000",
          "105755.953000",
          "105755.968000",
          "105755.968000",
          "105755.968000",
          "105855.921000",
          "105855.921000",
          "105855.921000",
          "105855.921000",
          "105855.921000",
          "105855.937000",
          "105855.937000",
          "105855.937000",
          "105855.937000",
          "105855.937000",
          "105855.937000",
          "105855.937000",
          "105855.953000",
          "105855.953000",
          "105855.953000",
          "105855.953000",
          "105855.953000",
          "105855.953000",
          "105855.953000",
          "105855.968000",
          "105855.968000",
          "105855.968000",
          "105855.968000",
          "105955.921000",
          "105955.921000",
          "105955.921000",
          "105955.937000",
          "105955.937000",
          "105955.937000",
          "105955.937000",
          "105955.937000",
          "105955.937000",
          "105955.937000",
          "105955.937000",
          "105955.953000",
          "105955.953000",
          "105955.953000",
          "105955.953000",
          "105955.968000",
          "105955.968000",
          "105955.968000",
          "105955.968000",
          "105955.968000",
          "105955.984000",
          "105955.984000",
          "105955.984000",
          "110055.921000",
          "110055.921000",
          "110055.921000",
          "110055.921000",
          "110055.921000",
          "110055.921000",
          "110055.921000",
          "110055.937000",
          "110055.937000",
          "110055.937000",
          "110055.937000",
          "110055.937000",
          "110055.937000",
          "110055.937000",
          "110055.953000",
          "110055.953000",
          "110055.953000",
          "110055.953000",
          "110055.953000",
          "110055.953000",
          "110055.953000",
          "110055.953000",
          "110055.968000",
          "110155.921000",
          "110155.921000",
          "110155.921000",
          "110155.921000",
          "110155.921000",
          "110155.921000",
          "110155.921000",
          "110155.937000",
          "110155.937000",
          "110155.937000",
          "110155.937000",
          "110155.937000",
          "110155.937000",
          "110155.937000",
          "110155.937000",
          "110155.953000",
          "110155.953000",
          "110155.953000",
          "110155.953000",
          "110155.953000",
          "110155.953000",
          "110155.953000",
          "110155.968000",
          "110255.921000",
          "110255.921000",
          "110255.921000",
          "110255.921000",
          "110255.921000",
          "110255.937000",
          "110255.937000",
          "110255.937000",
          "110255.937000",
          "110255.937000",
          "110255.937000",
          "110255.937000",
          "110255.953000",
          "110255.953000",
          "110255.953000",
          "110255.953000",
          "110255.953000",
          "110255.953000",
          "110255.953000",
          "110255.968000",
          "110255.968000",
          "110255.968000",
          "110255.968000",
          "110355.921000",
          "110355.921000",
          "110355.921000",
          "110355.921000",
          "110355.921000",
          "110355.921000",
          "110355.921000",
          "110355.937000",
          "110355.937000",
          "110355.937000",
          "110355.937000",
          "110355.937000",
          "110355.937000",
          "110355.937000",
          "110355.953000",
          "110355.953000",
          "110355.953000",
          "110355.953000",
          "110355.953000",
          "110355.953000",
          "110355.953000",
          "110355.968000",
          "110355.968000",
          "110355.968000",
          "110426.812000",
          "110426.812000",
          "110426.812000",
          "110426.828000",
          "110426.828000",
          "110426.828000",
          "110426.828000",
          "110426.828000",
          "110426.828000",
          "110426.828000"
        ],
        "InstanceCreationTime": [
          "105555.921000",
          "105555.937000",
          "105555.937000",
          "105555.937000",
          "105555.937000",
          "105555.937000",
          "105555.937000",
          "105555.937000",
          "105555.953000",
          "105555.953000",
          "105555.953000",
          "105555.953000",
          "105555.953000",
          "105555.953000",
          "105555.953000",
          "105555.953000",
          "105555.968000",
          "105555.968000",
          "105555.968000",
          "105555.968000",
          "105555.968000",
          "105655.906000",
          "105655.921000",
          "105655.921000",
          "105655.921000",
          "105655.921000",
          "105655.921000",
          "105655.921000",
          "105655.921000",
          "105655.937000",
          "105655.937000",
          "105655.937000",
          "105655.937000",
          "105655.937000",
          "105655.937000",
          "105655.953000",
          "105655.953000",
          "105655.953000",
          "105655.953000",
          "105655.968000",
          "105655.968000",
          "105655.968000",
          "105655.968000",
          "105655.968000",
          "105755.921000",
          "105755.921000",
          "105755.921000",
          "105755.921000",
          "105755.921000",
          "105755.921000",
          "105755.937000",
          "105755.937000",
          "105755.937000",
          "105755.937000",
          "105755.937000",
          "105755.937000",
          "105755.937000",
          "105755.953000",
          "105755.953000",
          "105755.953000",
          "105755.953000",
          "105755.953000",
          "105755.953000",
          "105755.953000",
          "105755.968000",
          "105755.968000",
          "105755.968000",
          "105855.921000",
          "105855.921000",
          "105855.921000",
          "105855.921000",
          "105855.921000",
          "105855.937000",
          "105855.937000",
          "105855.937000",
          "105855.937000",
          "105855.937000",
          "105855.937000",
          "105855.937000",
          "105855.953000",
          "105855.953000",
          "105855.953000",
          "105855.953000",
          "105855.953000",
          "105855.953000",
          "105855.953000",
          "105855.968000",
          "105855.968000",
          "105855.968000",
          "105855.968000",
          "105955.921000",
          "105955.921000",
          "105955.921000",
          "105955.937000",
          "105955.937000",
          "105955.937000",
          "105955.937000",
          "105955.937000",
          "105955.937000",
          "105955.937000",
          "105955.937000",
          "105955.953000",
          "105955.953000",
          "105955.953000",
          "105955.953000",
          "105955.968000",
          "105955.968000",
          "105955.968000",
          "105955.968000",
          "105955.968000",
          "105955.984000",
          "105955.984000",
          "105955.984000",
          "110055.921000",
          "110055.921000",
          "110055.921000",
          "110055.921000",
          "110055.921000",
          "110055.921000",
          "110055.921000",
          "110055.937000",
          "110055.937000",
          "110055.937000",
          "110055.937000",
          "110055.937000",
          "110055.937000",
          "110055.937000",
          "110055.953000",
          "110055.953000",
          "110055.953000",
          "110055.953000",
          "110055.953000",
          "110055.953000",
          "110055.953000",
          "110055.953000",
          "110055.968000",
          "110155.921000",
          "110155.921000",
          "110155.921000",
          "110155.921000",
          "110155.921000",
          "110155.921000",
          "110155.921000",
          "110155.937000",
          "110155.937000",
          "110155.937000",
          "110155.937000",
          "110155.937000",
          "110155.937000",
          "110155.937000",
          "110155.937000",
          "110155.953000",
          "110155.953000",
          "110155.953000",
          "110155.953000",
          "110155.953000",
          "110155.953000",
          "110155.953000",
          "110155.968000",
          "110255.921000",
          "110255.921000",
          "110255.921000",
          "110255.921000",
          "110255.921000",
          "110255.937000",
          "110255.937000",
          "110255.937000",
          "110255.937000",
          "110255.937000",
          "110255.937000",
          "110255.937000",
          "110255.953000",
          "110255.953000",
          "110255.953000",
          "110255.953000",
          "110255.953000",
          "110255.953000",
          "110255.953000",
          "110255.968000",
          "110255.968000",
          "110255.968000",
          "110255.968000",
          "110355.921000",
          "110355.921000",
          "110355.921000",
          "110355.921000",
          "110355.921000",
          "110355.921000",
          "110355.921000",
          "110355.937000",
          "110355.937000",
          "110355.937000",
          "110355.937000",
          "110355.937000",
          "110355.937000",
          "110355.937000",
          "110355.953000",
          "110355.953000",
          "110355.953000",
          "110355.953000",
          "110355.953000",
          "110355.953000",
          "110355.953000",
          "110355.968000",
          "110355.968000",
          "110355.968000",
          "110426.812000",
          "110426.812000",
          "110426.812000",
          "110426.828000",
          "110426.828000",
          "110426.828000",
          "110426.828000",
          "110426.828000",
          "110426.828000",
          "110426.828000"
        ],
        "InstanceNumber": [
          1,
          2,
          3,
          4,
          5,
          6,
          7,
          8,
          9,
          10,
          11,
          12,
          13,
          14,
          15,
          16,
          17,
          18,
          19,
          20,
          21,
          22,
          23,
          24,
          25,
          26,
          27,
          28,
          29,
          30,
          31,
          32,
          33,
          34,
          35,
          36,
          37,
          38,
          39,
          40,
          41,
          42,
          43,
          44,
          45,
          46,
          47,
          48,
          49,
          50,
          51,
          52,
          53,
          54,
          55,
          56,
          57,
          58,
          59,
          60,
          61,
          62,
          63,
          64,
          65,
          66,
          67,
          68,
          69,
          70,
          71,
          72,
          73,
          74,
          75,
          76,
          77,
          78,
          79,
          80,
          81,
          82,
          83,
          84,
          85,
          86,
          87,
          88,
          89,
          90,
          91,
          92,
          93,
          94,
          95,
          96,
          97,
          98,
          99,
          100,
          101,
          102,
          103,
          104,
          105,
          106,
          107,
          108,
          109,
          110,
          111,
          112,
          113,
          114,
          115,
          116,
          117,
          118,
          119,
          120,
          121,
          122,
          123,
          124,
          125,
          126,
          127,
          128,
          129,
          130,
          131,
          132,
          133,
          134,
          135,
          136,
          137,
          138,
          139,
          140,
          141,
          142,
          143,
          144,
          145,
          146,
          147,
          148,
          149,
          150,
          151,
          152,
          153,
          154,
          155,
          156,
          157,
          158,
          159,
          160,
          161,
          162,
          163,
          164,
          165,
          166,
          167,
          168,
          169,
          170,
