{
  "aor": 0.0004255092592592592,
  "aqi": 0.01350702175925926,
  "bids_meta": {
    "AcquisitionMatrixPE": 188,
    "AcquisitionNumber": 1,
    "AcquisitionTime": "19:38:6.022500",
    "BandwidthPerPixelPhaseEncode": 19.46,
    "BaseResolution": 188,
    "ConversionSoftware": "dcm2niix",
    "ConversionSoftwareVersion": "v1.0.20180606 GCC4.8.5",
    "DelayTime": 1.2,
    "DerivedVendorReportedEchoSpacing": 0.000820013,
    "DeviceSerialNumber": "18930",
    "DwellTime": 1.9e-06,
    "EchoTime": 0.02,
    "EffectiveEchoSpacing": 0.000273338,
    "FlipAngle": 80,
    "ImageComments": "Unaliased_MB2_PE2",
    "ImageOrientationPatientDICOM": [
      0.998691,
      0.010459,
      -0.0500669,
      -0.051028,
      0.136815,
      -0.989281
    ],
    "ImageType": [
      "ORIGINAL",
      "PRIMARY",
      "M",
      "MB",
      "ND",
      "MOSAIC"
    ],
    "InPlanePhaseEncodingDirectionDICOM": "COL",
    "InstitutionAddress": "Oxfordlaan_55_Maastricht_Limburg_NL_6229_EV",
    "InstitutionName": "Scannexus",
    "InstitutionalDepartmentName": "MRI_7T",
    "MRAcquisitionType": "2D",
    "MagneticFieldStrength": 6.98,
    "Manufacturer": "Siemens",
    "ManufacturersModelName": "Investigational_Device_7T",
    "Modality": "MR",
    "MultibandAccelerationFactor": 2,
    "ParallelReductionFactorInPlane": 3,
    "PartialFourier": 0.75,
    "PatientPosition": "HFS",
    "PercentPhaseFOV": 100,
    "PhaseEncodingDirection": "j",
    "PhaseEncodingSteps": 141,
    "PhaseResolution": 1,
    "PixelBandwidth": 1400,
    "ProcedureStepDescription": "FeDem_fMRI",
    "ProtocolName": "cmrr_mbep2d_bold_AP_run5",
    "PulseSequenceDetails": "%CustomerSeq%_cmrr_mbep2d_bold",
    "ReceiveCoilName": "32Ch_Head_7T",
    "ReconMatrixPE": 188,
    "RepetitionTime": 2.6,
    "SAR": 0.0757125,
    "ScanOptions": "PFP_FS",
    "ScanningSequence": "EP",
    "SequenceName": "epfid2d1_188",
    "SequenceVariant": "SK_SS",
    "SeriesDescription": "cmrr_mbep2d_bold_AP_run5",
    "SeriesNumber": 14,
    "ShimSetting": [
      55,
      -94,
      530,
      314,
      -232,
      380,
      -108,
      83
    ],
    "SliceThickness": 1.1,
    "SliceTiming": [
      0,
      0.7325,
      0.06,
      0.7925,
      0.12,
      0.855,
      0.1825,
      0.915,
      0.2425,
      0.9775,
      0.305,
      1.0375,
      0.365,
      1.1,
      0.4275,
      1.16,
      0.4875,
      1.22,
      0.55,
      1.2825,
      0.61,
      1.3425,
      0.67,
      0,
      0.7325,
      0.06,
      0.7925,
      0.12,
      0.855,
      0.1825,
      0.915,
      0.2425,
      0.9775,
      0.305,
      1.0375,
      0.365,
      1.1,
      0.4275,
      1.16,
      0.4875,
      1.22,
      0.55,
      1.2825,
      0.61,
      1.3425,
      0.67
    ],
    "SoftwareVersions": "syngo_MR_B17",
    "SpacingBetweenSlices": 1.1,
    "StationName": "MRC18930",
    "TaskName": "auditory",
    "TotalReadoutTime": 0.0511141,
    "TxRefAmp": 279,
    "dataset": "ds001942",
    "dcmmeta_affine": [
      [
        -1.0943105220794678,
        -0.05591363459825516,
        0.0038466667756438255,
        104.14334869384766
      ],
      [
        -0.011460354551672935,
        0.14991402626037598,
        -1.0895949602127075,
        32.815391540527344
      ],
      [
        -0.05486052483320236,
        1.0839999914169312,
        0.1508861929178238,
        -117.40580749511719
      ],
      [
        0.0,
        0.0,
        0.0,
        1.0
      ]
    ],
    "dcmmeta_reorient_transform": [
      [
        0.0,
        -1.0,
        0.0,
        187.0
      ],
      [
        1.0,
        0.0,
        0.0,
        0.0
      ],
      [
        0.0,
        0.0,
        1.0,
        0.0
      ],
      [
        0.0,
        0.0,
        0.0,
        1.0
      ]
    ],
    "dcmmeta_shape": [
      188,
      188,
      46,
      216
    ],
    "dcmmeta_slice_dim": 2,
    "dcmmeta_version": 0.6,
    "global": {
      "const": {
        "AcquisitionMatrix": [
          188,
          0,
          0,
          188
        ],
        "AngioFlag": "N",
        "BitsAllocated": 16,
        "BitsStored": 12,
        "Columns": 1316,
        "EchoNumbers": 1,
        "EchoTime": 20.0,
        "EchoTrainLength": 1,
        "FlipAngle": 80.0,
        "HighBit": 11,
        "ImageOrientationPatient": [
          0.99869110192878,
          0.01045896377737,
          -0.0500668853135,
          -0.0510279738583,
          0.13681473115299,
          -0.9892814944309
        ],
        "ImagePositionPatient": [
          -679.34333833819,
          -151.86446109028,
          727.6195128488
        ],
        "ImageType": [
          "ORIGINAL",
          "PRIMARY",
          "M",
          "MB",
          "ND",
          "MOSAIC"
        ],
        "ImagedNucleus": "1H",
        "ImagingFrequency": 297.205559,
        "InPlanePhaseEncodingDirection": "COL",
        "LargestImagePixelValue": 4095,
        "MRAcquisitionType": "2D",
        "MagneticFieldStrength": 6.98,
        "Manufacturer": "SIEMENS",
        "ManufacturerModelName": "Investigational_Device_7T",
        "Modality": "MR",
        "NumberOfAverages": 1.0,
        "NumberOfPhaseEncodingSteps": 141,
        "PercentPhaseFieldOfView": 100.0,
        "PercentSampling": 100.0,
        "PerformedProcedureStepStartTime": "182006.265000",
        "PhotometricInterpretation": "MONOCHROME2",
        "PixelBandwidth": 1400.0,
        "PixelRepresentation": 0,
        "PixelSpacing": [
          1.0957447290421,
          1.0957447290421
        ],
        "ProtocolName": "cmrr_mbep2d_bold_AP_run5",
        "RepetitionTime": 2600.0,
        "Rows": 1316,
        "SAR": 0.07571249223667,
        "SamplesPerPixel": 1,
        "ScanOptions": [
          "PFP",
          "FS"
        ],
        "ScanningSequence": "EP",
        "SequenceName": "epfid2d1_188",
        "SequenceVariant": [
          "SK",
          "SS"
        ],
        "SeriesDescription": "cmrr_mbep2d_bold_AP_run5",
        "SeriesNumber": 14,
        "SeriesTime": "193910.406000",
        "SliceLocation": -48.245298268939,
        "SliceThickness": 1.1000000238419,
        "SmallestImagePixelValue": 0,
        "SoftwareVersions": "syngo MR B17",
        "SpacingBetweenSlices": 1.0999993358473,
        "SpecificCharacterSet": "ISO_IR 100",
        "StudyID": "1",
        "StudyTime": "182006.125000",
        "TransmitCoilName": "32Ch_Head_7T",
        "VariableFlipAngleFlag": "N",
        "WindowCenterWidthExplanation": "Algo1",
        "dBdt": 0.0
      },
      "slices": {}
    },
    "modality": "bold",
    "run_id": 5,
    "session_id": "SES05",
    "subject_id": "S01",
    "task_id": "auditory",
    "time": {
      "samples": {
        "AcquisitionNumber": [
          1,
          2,
          3,
          4,
          5,
          6,
          7,
          8,
          9,
          10,
          11,
          12,
          13,
          14,
          15,
          16,
          17,
          18,
          19,
          20,
          21,
          22,
          23,
          24,
          25,
          26,
          27,
          28,
          29,
          30,
          31,
          32,
          33,
          34,
          35,
          36,
          37,
          38,
          39,
          40,
          41,
          42,
          43,
          44,
          45,
          46,
          47,
          48,
          49,
          50,
          51,
          52,
          53,
          54,
          55,
          56,
          57,
          58,
          59,
          60,
          61,
          62,
          63,
          64,
          65,
          66,
          67,
          68,
          69,
          70,
          71,
          72,
          73,
          74,
          75,
          76,
          77,
          78,
          79,
          80,
          81,
          82,
          83,
          84,
          85,
          86,
          87,
          88,
          89,
          90,
          91,
          92,
          93,
          94,
          95,
          96,
          97,
          98,
          99,
          100,
          101,
          102,
          103,
          104,
          105,
          106,
          107,
          108,
          109,
          110,
          111,
          112,
          113,
          114,
          115,
          116,
          117,
          118,
          119,
          120,
          121,
          122,
          123,
          124,
          125,
          126,
          127,
          128,
          129,
          130,
          131,
          132,
          133,
          134,
          135,
          136,
          137,
          138,
          139,
          140,
          141,
          142,
          143,
          144,
          145,
          146,
          147,
          148,
          149,
          150,
          151,
          152,
          153,
          154,
          155,
          156,
          157,
          158,
          159,
          160,
          161,
          162,
          163,
          164,
          165,
          166,
          167,
          168,
          169,
          170,
          171,
          172,
          173,
          174,
          175,
          176,
          177,
          178,
          179,
          180,
          181,
          182,
          183,
          184,
          185,
          186,
          187,
          188,
          189,
          190,
          191,
          192,
          193,
          194,
          195,
          196,
          197,
          198,
          199,
          200,
          201,
          202,
          203,
          204,
          205,
          206,
          207,
          208,
          209,
          210,
          211,
          212,
          213,
          214,
          215,
          216
        ],
        "AcquisitionTime": [
          "193806.022500",
          "193808.632500",
          "193811.242500",
          "193813.852500",
          "193816.462500",
          "193819.072500",
          "193821.685000",
          "193824.295000",
          "193826.905000",
          "193829.515000",
          "193832.125000",
          "193834.737500",
          "193837.347500",
          "193839.957500",
          "193842.567500",
          "193845.177500",
          "193847.787500",
          "193850.400000",
          "193853.010000",
          "193855.620000",
          "193858.230000",
          "193900.840000",
          "193903.452500",
          "193906.062500",
          "193908.672500",
          "193911.282500",
          "193913.892500",
          "193916.502500",
          "193919.115000",
          "193921.725000",
          "193924.335000",
          "193926.945000",
          "193929.555000",
          "193932.165000",
          "193934.777500",
          "193937.387500",
          "193939.997500",
          "193942.607500",
          "193945.217500",
          "193947.830000",
          "193950.440000",
          "193953.050000",
          "193955.660000",
          "193958.270000",
          "194000.880000",
          "194003.492500",
          "194006.102500",
          "194008.712500",
          "194011.322500",
          "194013.932500",
          "194016.542500",
          "194019.155000",
          "194021.765000",
          "194024.375000",
          "194026.985000",
          "194029.595000",
          "194032.207500",
          "194034.817500",
          "194037.427500",
          "194040.037500",
          "194042.647500",
          "194045.257500",
          "194047.870000",
          "194050.480000",
          "194053.090000",
          "194055.700000",
          "194058.310000",
          "194100.920000",
          "194103.532500",
          "194106.142500",
          "194108.752500",
          "194111.362500",
          "194113.972500",
          "194116.585000",
          "194119.195000",
          "194121.805000",
          "194124.415000",
          "194127.025000",
          "194129.635000",
          "194132.247500",
          "194134.857500",
          "194137.467500",
          "194140.077500",
          "194142.687500",
          "194145.297500",
          "194147.910000",
          "194150.520000",
          "194153.130000",
          "194155.740000",
          "194158.350000",
          "194200.962500",
          "194203.572500",
          "194206.182500",
          "194208.792500",
          "194211.402500",
          "194214.012500",
          "194216.625000",
          "194219.235000",
          "194221.845000",
          "194224.455000",
          "194227.065000",
          "194229.675000",
          "194232.287500",
          "194234.897500",
          "194237.507500",
          "194240.117500",
          "194242.727500",
          "194245.340000",
          "194247.950000",
          "194250.560000",
          "194253.170000",
          "194255.780000",
          "194258.390000",
          "194301.002500",
          "194303.612500",
          "194306.222500",
          "194308.832500",
          "194311.442500",
          "194314.052500",
          "194316.665000",
          "194319.275000",
          "194321.885000",
          "194324.495000",
          "194327.105000",
          "194329.717500",
          "194332.327500",
          "194334.937500",
          "194337.547500",
          "194340.157500",
          "194342.767500",
          "194345.380000",
          "194347.990000",
          "194350.600000",
          "194353.210000",
          "194355.820000",
          "194358.430000",
          "194401.042500",
          "194403.652500",
          "194406.262500",
          "194408.872500",
          "194411.482500",
          "194414.095000",
          "194416.705000",
          "194419.315000",
          "194421.925000",
          "194424.535000",
          "194427.145000",
          "194429.757500",
          "194432.367500",
          "194434.977500",
          "194437.587500",
          "194440.197500",
          "194442.807500",
          "194445.420000",
          "194448.030000",
          "194450.640000",
          "194453.250000",
          "194455.860000",
          "194458.472500",
          "194501.082500",
          "194503.692500",
          "194506.302500",
          "194508.912500",
          "194511.522500",
          "194514.135000",
          "194516.745000",
          "194519.355000",
          "194521.965000",
          "194524.575000",
          "194527.185000",
          "194529.797500",
          "194532.407500",
          "194535.017500",
          "194537.627500",
          "194540.237500",
          "194542.850000",
          "194545.460000",
          "194548.070000",
          "194550.680000",
          "194553.290000",
          "194555.900000",
          "194558.512500",
          "194601.122500",
          "194603.732500",
          "194606.342500",
          "194608.952500",
          "194611.562500",
          "194614.175000",
          "194616.785000",
          "194619.395000",
          "194622.005000",
          "194624.615000",
          "194627.227500",
          "194629.837500",
          "194632.447500",
          "194635.057500",
          "194637.667500",
          "194640.277500",
          "194642.890000",
          "194645.500000",
          "194648.110000",
          "194650.720000",
          "194653.330000",
          "194655.940000",
          "194658.552500",
          "194701.162500",
          "194703.772500",
          "194706.382500",
          "194708.992500",
          "194711.605000",
          "194714.215000",
          "194716.825000",
          "194719.435000",
          "194722.045000",
          "194724.655000",
          "194727.267500"
        ],
        "ContentTime": [
          "193910.406000",
          "193910.421000",
          "193910.421000",
          "193910.437000",
          "193910.437000",
          "193910.437000",
          "193910.437000",
          "193910.453000",
          "193910.453000",
          "193910.453000",
          "193910.453000",
          "193910.453000",
          "193910.453000",
          "193910.453000",
          "193910.453000",
          "193910.468000",
          "193910.468000",
          "193910.468000",
          "193910.468000",
          "193910.468000",
          "193910.468000",
          "193910.484000",
          "193910.484000",
          "194010.406000",
          "194010.406000",
          "194010.406000",
          "194010.421000",
          "194010.421000",
          "194010.421000",
          "194010.421000",
          "194010.421000",
          "194010.421000",
          "194010.421000",
          "194010.437000",
          "194010.437000",
          "194010.437000",
          "194010.437000",
          "194010.437000",
          "194010.437000",
          "194010.437000",
          "194010.453000",
          "194010.453000",
          "194010.453000",
          "194010.453000",
          "194010.453000",
          "194010.453000",
          "194010.468000",
          "194110.406000",
          "194110.406000",
          "194110.406000",
          "194110.406000",
          "194110.406000",
          "194110.421000",
          "194110.421000",
          "194110.421000",
          "194110.421000",
          "194110.421000",
          "194110.421000",
          "194110.421000",
          "194110.437000",
          "194110.437000",
          "194110.437000",
          "194110.437000",
          "194110.437000",
          "194110.437000",
          "194110.437000",
          "194110.453000",
          "194110.453000",
          "194110.453000",
          "194110.453000",
          "194210.406000",
          "194210.406000",
          "194210.406000",
          "194210.406000",
          "194210.406000",
          "194210.421000",
          "194210.421000",
          "194210.421000",
          "194210.421000",
          "194210.421000",
          "194210.421000",
          "194210.421000",
          "194210.437000",
          "194210.437000",
          "194210.437000",
          "194210.437000",
          "194210.437000",
          "194210.453000",
          "194210.453000",
          "194210.453000",
          "194210.453000",
          "194210.453000",
          "194210.453000",
          "194310.406000",
          "194310.406000",
          "194310.406000",
          "194310.421000",
          "194310.421000",
          "194310.421000",
          "194310.421000",
          "194310.421000",
          "194310.437000",
          "194310.437000",
          "194310.437000",
          "194310.437000",
          "194310.437000",
          "194310.453000",
          "194310.453000",
          "194310.453000",
          "194310.453000",
          "194310.453000",
          "194310.453000",
          "194310.453000",
          "194310.468000",
          "194310.468000",
          "194310.468000",
          "194410.406000",
          "194410.406000",
          "194410.406000",
          "194410.421000",
          "194410.421000",
          "194410.421000",
          "194410.421000",
          "194410.421000",
          "194410.421000",
          "194410.437000",
          "194410.437000",
          "194410.437000",
          "194410.437000",
          "194410.437000",
          "194410.437000",
          "194410.437000",
          "194410.453000",
          "194410.453000",
          "194410.453000",
          "194410.453000",
          "194410.453000",
          "194410.453000",
          "194410.468000",
          "194510.406000",
          "194510.406000",
          "194510.406000",
          "194510.406000",
          "194510.406000",
          "194510.421000",
          "194510.421000",
          "194510.421000",
          "194510.421000",
          "194510.421000",
          "194510.421000",
          "194510.421000",
          "194510.437000",
          "194510.437000",
          "194510.437000",
          "194510.437000",
          "194510.437000",
          "194510.453000",
          "194510.453000",
          "194510.453000",
          "194510.453000",
          "194510.453000",
          "194510.453000",
          "194610.406000",
          "194610.406000",
          "194610.406000",
          "194610.406000",
          "194610.406000",
          "194610.421000",
          "194610.421000",
          "194610.421000",
          "194610.421000",
          "194610.421000",
          "194610.421000",
          "194610.421000",
          "194610.437000",
          "194610.437000",
          "194610.437000",
          "194610.437000",
          "194610.437000",
          "194610.437000",
          "194610.437000",
          "194610.437000",
          "194610.453000",
          "194610.453000",
          "194610.453000",
          "194710.406000",
          "194710.406000",
          "194710.406000",
          "194710.421000",
          "194710.421000",
          "194710.421000",
          "194710.437000",
          "194710.437000",
          "194710.437000",
          "194710.437000",
          "194710.437000",
          "194710.453000",
          "194710.453000",
          "194710.453000",
          "194710.453000",
          "194710.453000",
          "194710.453000",
          "194710.453000",
          "194710.468000",
          "194710.468000",
          "194710.468000",
          "194710.468000",
          "194710.468000",
          "194730.406000",
          "194730.406000",
          "194730.406000",
          "194730.406000",
          "194730.406000",
          "194730.421000",
          "194730.421000",
          "194734.703000"
        ],
        "InstanceCreationTime": [
          "193910.406000",
          "193910.421000",
          "193910.421000",
          "193910.437000",
          "193910.437000",
          "193910.437000",
          "193910.437000",
          "193910.453000",
          "193910.453000",
          "193910.453000",
          "193910.453000",
          "193910.453000",
          "193910.453000",
          "193910.453000",
          "193910.453000",
          "193910.468000",
          "193910.468000",
          "193910.468000",
          "193910.468000",
          "193910.468000",
          "193910.468000",
          "193910.484000",
          "193910.484000",
          "194010.406000",
          "194010.406000",
          "194010.406000",
          "194010.421000",
          "194010.421000",
          "194010.421000",
          "194010.421000",
          "194010.421000",
          "194010.421000",
          "194010.421000",
          "194010.437000",
          "194010.437000",
          "194010.437000",
          "194010.437000",
          "194010.437000",
          "194010.437000",
          "194010.437000",
          "194010.453000",
          "194010.453000",
          "194010.453000",
          "194010.453000",
          "194010.453000",
          "194010.453000",
          "194010.468000",
          "194110.406000",
          "194110.406000",
          "194110.406000",
          "194110.406000",
          "194110.406000",
          "194110.421000",
          "194110.421000",
          "194110.421000",
          "194110.421000",
          "194110.421000",
          "194110.421000",
          "194110.421000",
          "194110.437000",
          "194110.437000",
          "194110.437000",
          "194110.437000",
          "194110.437000",
          "194110.437000",
          "194110.437000",
          "194110.453000",
          "194110.453000",
          "194110.453000",
          "194110.453000",
          "194210.406000",
          "194210.406000",
          "194210.406000",
          "194210.406000",
          "194210.406000",
          "194210.421000",
          "194210.421000",
          "194210.421000",
          "194210.421000",
          "194210.421000",
          "194210.421000",
          "194210.421000",
          "194210.437000",
          "194210.437000",
          "194210.437000",
          "194210.437000",
          "194210.437000",
          "194210.453000",
          "194210.453000",
          "194210.453000",
          "194210.453000",
          "194210.453000",
          "194210.453000",
          "194310.406000",
          "194310.406000",
          "194310.406000",
          "194310.421000",
          "194310.421000",
          "194310.421000",
          "194310.421000",
          "194310.421000",
          "194310.437000",
          "194310.437000",
          "194310.437000",
          "194310.437000",
          "194310.437000",
          "194310.453000",
          "194310.453000",
          "194310.453000",
          "194310.453000",
          "194310.453000",
          "194310.453000",
          "194310.453000",
          "194310.468000",
          "194310.468000",
          "194310.468000",
          "194410.406000",
          "194410.406000",
          "194410.406000",
          "194410.421000",
          "194410.421000",
          "194410.421000",
          "194410.421000",
          "194410.421000",
          "194410.421000",
          "194410.437000",
          "194410.437000",
          "194410.437000",
          "194410.437000",
          "194410.437000",
          "194410.437000",
          "194410.437000",
          "194410.453000",
          "194410.453000",
          "194410.453000",
          "194410.453000",
          "194410.453000",
          "194410.453000",
          "194410.468000",
          "194510.406000",
          "194510.406000",
          "194510.406000",
          "194510.406000",
          "194510.406000",
          "194510.421000",
          "194510.421000",
          "194510.421000",
          "194510.421000",
          "194510.421000",
          "194510.421000",
          "194510.421000",
          "194510.437000",
          "194510.437000",
          "194510.437000",
          "194510.437000",
          "194510.437000",
          "194510.453000",
          "194510.453000",
          "194510.453000",
          "194510.453000",
          "194510.453000",
          "194510.453000",
          "194610.406000",
          "194610.406000",
          "194610.406000",
          "194610.406000",
          "194610.406000",
          "194610.421000",
          "194610.421000",
          "194610.421000",
          "194610.421000",
          "194610.421000",
          "194610.421000",
          "194610.421000",
          "194610.437000",
          "194610.437000",
          "194610.437000",
          "194610.437000",
          "194610.437000",
          "194610.437000",
          "194610.437000",
          "194610.437000",
          "194610.453000",
          "194610.453000",
          "194610.453000",
          "194710.406000",
          "194710.406000",
          "194710.406000",
          "194710.421000",
          "194710.421000",
          "194710.421000",
          "194710.437000",
          "194710.437000",
          "194710.437000",
          "194710.437000",
          "194710.437000",
          "194710.453000",
          "194710.453000",
          "194710.453000",
          "194710.453000",
          "194710.453000",
          "194710.453000",
          "194710.453000",
          "194710.468000",
          "194710.468000",
          "194710.468000",
          "194710.468000",
          "194710.468000",
          "194730.406000",
          "194730.406000",
          "194730.406000",
          "194730.406000",
          "194730.406000",
          "194730.421000",
          "194730.421000",
          "194734.703000"
        ],
        "InstanceNumber": [
          1,
          2,
          3,
          4,
          5,
          6,
          7,
          8,
          9,
          10,
          11,
          12,
          13,
          14,
          15,
          16,
          17,
          18,
          19,
          20,
          21,
          22,
          23,
          24,
          25,
          26,
          27,
          28,
          29,
          30,
          31,
          32,
          33,
          34,
          35,
          36,
          37,
          38,
          39,
          40,
          41,
          42,
          43,
          44,
          45,
          46,
          47,
          48,
          49,
          50,
          51,
          52,
          53,
          54,
          55,
          56,
          57,
          58,
          59,
          60,
          61,
          62,
          63,
          64,
          65,
          66,
          67,
          68,
          69,
          70,
          71,
          72,
          73,
          74,
          75,
          76,
          77,
          78,
          79,
          80,
          81,
          82,
          83,
          84,
          85,
          86,
          87,
          88,
          89,
          90,
          91,
          92,
          93,
          94,
          95,
          96,
          97,
          98,
          99,
          100,
          101,
          102,
          103,
          104,
          105,
          106,
          107,
          108,
          109,
          110,
          111,
          112,
          113,
          114,
          115,
          116,
          117,
          118,
          119,
          120,
          121,
          122,
          123,
          124,
          125,
          126,
          127,
          128,
          129,
          130,
          131,
          132,
          133,
          134,
          135,
          136,
          137,
          138,
          139,
          140,
          141,
          142,
          143,
          144,
          145,
          146,
          147,
          148,
          149,
          150,
          151,
          152,
          153,
          154,
          155,
          156,
          157,
          158,
          159,
          160,
          161,
          162,
          163,
          164,
          165,
          166,
          167,
          168,
          169,
          170,
          171,
