{
  "aor": 0.0004973148148148149,
  "aqi": 0.012825279166666667,
  "bids_meta": {
    "AcquisitionMatrixPE": 188,
    "AcquisitionNumber": 1,
    "AcquisitionTime": "20:10:35.382500",
    "BandwidthPerPixelPhaseEncode": 19.46,
    "BaseResolution": 188,
    "ConversionSoftware": "dcm2niix",
    "ConversionSoftwareVersion": "v1.0.20180606 GCC4.8.5",
    "DelayTime": 1.2,
    "DerivedVendorReportedEchoSpacing": 0.000820013,
    "DeviceSerialNumber": "18930",
    "DwellTime": 1.9e-06,
    "EchoTime": 0.02,
    "EffectiveEchoSpacing": 0.000273338,
    "FlipAngle": 80,
    "ImageComments": "Unaliased_MB2_PE2",
    "ImageOrientationPatientDICOM": [
      0.998691,
      0.010459,
      -0.0500669,
      -0.051028,
      0.136815,
      -0.989281
    ],
    "ImageType": [
      "ORIGINAL",
      "PRIMARY",
      "M",
      "MB",
      "ND",
      "MOSAIC"
    ],
    "InPlanePhaseEncodingDirectionDICOM": "COL",
    "InstitutionAddress": "Oxfordlaan_55_Maastricht_Limburg_NL_6229_EV",
    "InstitutionName": "Scannexus",
    "InstitutionalDepartmentName": "MRI_7T",
    "MRAcquisitionType": "2D",
    "MagneticFieldStrength": 6.98,
    "Manufacturer": "Siemens",
    "ManufacturersModelName": "Investigational_Device_7T",
    "Modality": "MR",
    "MultibandAccelerationFactor": 2,
    "ParallelReductionFactorInPlane": 3,
    "PartialFourier": 0.75,
    "PatientPosition": "HFS",
    "PercentPhaseFOV": 100,
    "PhaseEncodingDirection": "j",
    "PhaseEncodingSteps": 141,
    "PhaseResolution": 1,
    "PixelBandwidth": 1400,
    "ProcedureStepDescription": "FeDem_fMRI",
    "ProtocolName": "cmrr_mbep2d_bold_AP_run8",
    "PulseSequenceDetails": "%CustomerSeq%_cmrr_mbep2d_bold",
    "ReceiveCoilName": "32Ch_Head_7T",
    "ReconMatrixPE": 188,
    "RepetitionTime": 2.6,
    "SAR": 0.0753921,
    "ScanOptions": "PFP_FS",
    "ScanningSequence": "EP",
    "SequenceName": "epfid2d1_188",
    "SequenceVariant": "SK_SS",
    "SeriesDescription": "cmrr_mbep2d_bold_AP_run8",
    "SeriesNumber": 17,
    "ShimSetting": [
      55,
      -94,
      530,
      314,
      -232,
      380,
      -108,
      83
    ],
    "SliceThickness": 1.1,
    "SliceTiming": [
      0,
      0.735,
      0.0625,
      0.795,
      0.1225,
      0.8575,
      0.185,
      0.9175,
      0.245,
      0.9775,
      0.3075,
      1.04,
      0.3675,
      1.1,
      0.4275,
      1.1625,
      0.49,
      1.2225,
      0.55,
      1.285,
      0.6125,
      1.345,
      0.6725,
      0,
      0.735,
      0.0625,
      0.795,
      0.1225,
      0.8575,
      0.185,
      0.9175,
      0.245,
      0.9775,
      0.3075,
      1.04,
      0.3675,
      1.1,
      0.4275,
      1.1625,
      0.49,
      1.2225,
      0.55,
      1.285,
      0.6125,
      1.345,
      0.6725
    ],
    "SoftwareVersions": "syngo_MR_B17",
    "SpacingBetweenSlices": 1.1,
    "StationName": "MRC18930",
    "TaskName": "auditory",
    "TotalReadoutTime": 0.0511141,
    "TxRefAmp": 279,
    "dataset": "ds001942",
    "dcmmeta_affine": [
      [
        -1.0943105220794678,
        -0.05591363459825516,
        0.0038466667756438255,
        104.14334869384766
      ],
      [
        -0.011460354551672935,
        0.14991402626037598,
        -1.0895949602127075,
        32.815391540527344
      ],
      [
        -0.05486052483320236,
        1.0839999914169312,
        0.1508861929178238,
        -117.40580749511719
      ],
      [
        0.0,
        0.0,
        0.0,
        1.0
      ]
    ],
    "dcmmeta_reorient_transform": [
      [
        0.0,
        -1.0,
        0.0,
        187.0
      ],
      [
        1.0,
        0.0,
        0.0,
        0.0
      ],
      [
        0.0,
        0.0,
        1.0,
        0.0
      ],
      [
        0.0,
        0.0,
        0.0,
        1.0
      ]
    ],
    "dcmmeta_shape": [
      188,
      188,
      46,
      216
    ],
    "dcmmeta_slice_dim": 2,
    "dcmmeta_version": 0.6,
    "global": {
      "const": {
        "AcquisitionMatrix": [
          188,
          0,
          0,
          188
        ],
        "AngioFlag": "N",
        "BitsAllocated": 16,
        "BitsStored": 12,
        "Columns": 1316,
        "EchoNumbers": 1,
        "EchoTime": 20.0,
        "EchoTrainLength": 1,
        "FlipAngle": 80.0,
        "HighBit": 11,
        "ImageOrientationPatient": [
          0.99869110192878,
          0.01045896377737,
          -0.0500668853135,
          -0.0510279738583,
          0.13681473115299,
          -0.9892814944309
        ],
        "ImagePositionPatient": [
          -679.34333833819,
          -151.86446109028,
          727.6195128488
        ],
        "ImageType": [
          "ORIGINAL",
          "PRIMARY",
          "M",
          "MB",
          "ND",
          "MOSAIC"
        ],
        "ImagedNucleus": "1H",
        "ImagingFrequency": 297.205537,
        "InPlanePhaseEncodingDirection": "COL",
        "LargestImagePixelValue": 4095,
        "MRAcquisitionType": "2D",
        "MagneticFieldStrength": 6.98,
        "Manufacturer": "SIEMENS",
        "ManufacturerModelName": "Investigational_Device_7T",
        "Modality": "MR",
        "NumberOfAverages": 1.0,
        "NumberOfPhaseEncodingSteps": 141,
        "PercentPhaseFieldOfView": 100.0,
        "PercentSampling": 100.0,
        "PerformedProcedureStepStartTime": "182006.265000",
        "PhotometricInterpretation": "MONOCHROME2",
        "PixelBandwidth": 1400.0,
        "PixelRepresentation": 0,
        "PixelSpacing": [
          1.0957447290421,
          1.0957447290421
        ],
        "ProtocolName": "cmrr_mbep2d_bold_AP_run8",
        "RepetitionTime": 2600.0,
        "Rows": 1316,
        "SAR": 0.07539211214765,
        "SamplesPerPixel": 1,
        "ScanOptions": [
          "PFP",
          "FS"
        ],
        "ScanningSequence": "EP",
        "SequenceName": "epfid2d1_188",
        "SequenceVariant": [
          "SK",
          "SS"
        ],
        "SeriesDescription": "cmrr_mbep2d_bold_AP_run8",
        "SeriesNumber": 17,
        "SeriesTime": "201130.406000",
        "SliceLocation": -48.245298268939,
        "SliceThickness": 1.1000000238419,
        "SmallestImagePixelValue": 0,
        "SoftwareVersions": "syngo MR B17",
        "SpacingBetweenSlices": 1.0999993358473,
        "SpecificCharacterSet": "ISO_IR 100",
        "StudyID": "1",
        "StudyTime": "182006.125000",
        "TransmitCoilName": "32Ch_Head_7T",
        "VariableFlipAngleFlag": "N",
        "WindowCenterWidthExplanation": "Algo1",
        "dBdt": 0.0
      },
      "slices": {}
    },
    "modality": "bold",
    "run_id": 8,
    "session_id": "SES05",
    "subject_id": "S01",
    "task_id": "auditory",
    "time": {
      "samples": {
        "AcquisitionNumber": [
          1,
          2,
          3,
          4,
          5,
          6,
          7,
          8,
          9,
          10,
          11,
          12,
          13,
          14,
          15,
          16,
          17,
          18,
          19,
          20,
          21,
          22,
          23,
          24,
          25,
          26,
          27,
          28,
          29,
          30,
          31,
          32,
          33,
          34,
          35,
          36,
          37,
          38,
          39,
          40,
          41,
          42,
          43,
          44,
          45,
          46,
          47,
          48,
          49,
          50,
          51,
          52,
          53,
          54,
          55,
          56,
          57,
          58,
          59,
          60,
          61,
          62,
          63,
          64,
          65,
          66,
          67,
          68,
          69,
          70,
          71,
          72,
          73,
          74,
          75,
          76,
          77,
          78,
          79,
          80,
          81,
          82,
          83,
          84,
          85,
          86,
          87,
          88,
          89,
          90,
          91,
          92,
          93,
          94,
          95,
          96,
          97,
          98,
          99,
          100,
          101,
          102,
          103,
          104,
          105,
          106,
          107,
          108,
          109,
          110,
          111,
          112,
          113,
          114,
          115,
          116,
          117,
          118,
          119,
          120,
          121,
          122,
          123,
          124,
          125,
          126,
          127,
          128,
          129,
          130,
          131,
          132,
          133,
          134,
          135,
          136,
          137,
          138,
          139,
          140,
          141,
          142,
          143,
          144,
          145,
          146,
          147,
          148,
          149,
          150,
          151,
          152,
          153,
          154,
          155,
          156,
          157,
          158,
          159,
          160,
          161,
          162,
          163,
          164,
          165,
          166,
          167,
          168,
          169,
          170,
          171,
          172,
          173,
          174,
          175,
          176,
          177,
          178,
          179,
          180,
          181,
          182,
          183,
          184,
          185,
          186,
          187,
          188,
          189,
          190,
          191,
          192,
          193,
          194,
          195,
          196,
          197,
          198,
          199,
          200,
          201,
          202,
          203,
          204,
          205,
          206,
          207,
          208,
          209,
          210,
          211,
          212,
          213,
          214,
          215,
          216
        ],
        "AcquisitionTime": [
          "201035.382500",
          "201037.995000",
          "201040.605000",
          "201043.215000",
          "201045.825000",
          "201048.435000",
          "201051.045000",
          "201053.657500",
          "201056.267500",
          "201058.877500",
          "201101.487500",
          "201104.097500",
          "201106.710000",
          "201109.320000",
          "201111.930000",
          "201114.540000",
          "201117.150000",
          "201119.760000",
          "201122.372500",
          "201124.982500",
          "201127.592500",
          "201130.202500",
          "201132.812500",
          "201135.422500",
          "201138.035000",
          "201140.645000",
          "201143.255000",
          "201145.865000",
          "201148.475000",
          "201151.087500",
          "201153.697500",
          "201156.307500",
          "201158.917500",
          "201201.527500",
          "201204.137500",
          "201206.750000",
          "201209.360000",
          "201211.970000",
          "201214.580000",
          "201217.190000",
          "201219.800000",
          "201222.412500",
          "201225.022500",
          "201227.632500",
          "201230.242500",
          "201232.852500",
          "201235.465000",
          "201238.075000",
          "201240.685000",
          "201243.295000",
          "201245.905000",
          "201248.515000",
          "201251.127500",
          "201253.737500",
          "201256.347500",
          "201258.957500",
          "201301.567500",
          "201304.177500",
          "201306.790000",
          "201309.400000",
          "201312.010000",
          "201314.620000",
          "201317.230000",
          "201319.842500",
          "201322.452500",
          "201325.062500",
          "201327.672500",
          "201330.282500",
          "201332.892500",
          "201335.505000",
          "201338.115000",
          "201340.725000",
          "201343.335000",
          "201345.945000",
          "201348.555000",
          "201351.167500",
          "201353.777500",
          "201356.387500",
          "201358.997500",
          "201401.607500",
          "201404.220000",
          "201406.830000",
          "201409.440000",
          "201412.050000",
          "201414.660000",
          "201417.270000",
          "201419.882500",
          "201422.492500",
          "201425.102500",
          "201427.712500",
          "201430.322500",
          "201432.932500",
          "201435.545000",
          "201438.155000",
          "201440.765000",
          "201443.375000",
          "201445.985000",
          "201448.597500",
          "201451.207500",
          "201453.817500",
          "201456.427500",
          "201459.037500",
          "201501.647500",
          "201504.260000",
          "201506.870000",
          "201509.480000",
          "201512.090000",
          "201514.700000",
          "201517.310000",
          "201519.922500",
          "201522.532500",
          "201525.142500",
          "201527.752500",
          "201530.362500",
          "201532.975000",
          "201535.585000",
          "201538.195000",
          "201540.805000",
          "201543.415000",
          "201546.025000",
          "201548.637500",
          "201551.247500",
          "201553.857500",
          "201556.467500",
          "201559.077500",
          "201601.687500",
          "201604.300000",
          "201606.910000",
          "201609.520000",
          "201612.130000",
          "201614.740000",
          "201617.352500",
          "201619.962500",
          "201622.572500",
          "201625.182500",
          "201627.792500",
          "201630.402500",
          "201633.015000",
          "201635.625000",
          "201638.235000",
          "201640.845000",
          "201643.455000",
          "201646.065000",
          "201648.677500",
          "201651.287500",
          "201653.897500",
          "201656.507500",
          "201659.117500",
          "201701.730000",
          "201704.340000",
          "201706.950000",
          "201709.560000",
          "201712.170000",
          "201714.780000",
          "201717.392500",
          "201720.002500",
          "201722.612500",
          "201725.222500",
          "201727.832500",
          "201730.442500",
          "201733.055000",
          "201735.665000",
          "201738.275000",
          "201740.885000",
          "201743.495000",
          "201746.107500",
          "201748.717500",
          "201751.327500",
          "201753.937500",
          "201756.547500",
          "201759.157500",
          "201801.770000",
          "201804.380000",
          "201806.990000",
          "201809.600000",
          "201812.210000",
          "201814.820000",
          "201817.432500",
          "201820.042500",
          "201822.652500",
          "201825.262500",
          "201827.872500",
          "201830.485000",
          "201833.095000",
          "201835.705000",
          "201838.315000",
          "201840.925000",
          "201843.535000",
          "201846.147500",
          "201848.757500",
          "201851.367500",
          "201853.977500",
          "201856.587500",
          "201859.197500",
          "201901.810000",
          "201904.420000",
          "201907.030000",
          "201909.640000",
          "201912.250000",
          "201914.862500",
          "201917.472500",
          "201920.082500",
          "201922.692500",
          "201925.302500",
          "201927.912500",
          "201930.525000",
          "201933.135000",
          "201935.745000",
          "201938.355000",
          "201940.965000",
          "201943.575000",
          "201946.187500",
          "201948.797500",
          "201951.407500",
          "201954.017500",
          "201956.627500"
        ],
        "ContentTime": [
          "201130.406000",
          "201130.421000",
          "201130.421000",
          "201130.421000",
          "201130.421000",
          "201130.437000",
          "201130.437000",
          "201130.437000",
          "201130.437000",
          "201130.437000",
          "201130.437000",
          "201130.437000",
          "201130.453000",
          "201130.453000",
          "201130.453000",
          "201130.453000",
          "201130.453000",
          "201130.453000",
          "201130.453000",
          "201130.453000",
          "201230.406000",
          "201230.406000",
          "201230.406000",
          "201230.406000",
          "201230.406000",
          "201230.421000",
          "201230.421000",
          "201230.421000",
          "201230.421000",
          "201230.421000",
          "201230.421000",
          "201230.421000",
          "201230.421000",
          "201230.437000",
          "201230.437000",
          "201230.437000",
          "201230.437000",
          "201230.437000",
          "201230.437000",
          "201230.437000",
          "201230.453000",
          "201230.453000",
          "201230.453000",
          "201330.406000",
          "201330.406000",
          "201330.406000",
          "201330.406000",
          "201330.406000",
          "201330.421000",
          "201330.421000",
          "201330.421000",
          "201330.421000",
          "201330.421000",
          "201330.421000",
          "201330.421000",
          "201330.437000",
          "201330.437000",
          "201330.437000",
          "201330.437000",
          "201330.437000",
          "201330.437000",
          "201330.437000",
          "201330.437000",
          "201330.453000",
          "201330.453000",
          "201330.453000",
          "201430.406000",
          "201430.406000",
          "201430.406000",
          "201430.406000",
          "201430.406000",
          "201430.421000",
          "201430.421000",
          "201430.421000",
          "201430.421000",
          "201430.421000",
          "201430.421000",
          "201430.421000",
          "201430.437000",
          "201430.437000",
          "201430.437000",
          "201430.437000",
          "201430.437000",
          "201430.437000",
          "201430.437000",
          "201430.437000",
          "201430.453000",
          "201430.453000",
          "201430.453000",
          "201530.406000",
          "201530.406000",
          "201530.406000",
          "201530.421000",
          "201530.421000",
          "201530.421000",
          "201530.421000",
          "201530.421000",
          "201530.437000",
          "201530.437000",
          "201530.437000",
          "201530.437000",
          "201530.437000",
          "201530.437000",
          "201530.437000",
          "201530.453000",
          "201530.453000",
          "201530.468000",
          "201530.468000",
          "201530.468000",
          "201530.468000",
          "201530.468000",
          "201530.468000",
          "201630.406000",
          "201630.406000",
          "201630.406000",
          "201630.406000",
          "201630.406000",
          "201630.421000",
          "201630.421000",
          "201630.437000",
          "201630.437000",
          "201630.437000",
          "201630.437000",
          "201630.437000",
          "201630.437000",
          "201630.437000",
          "201630.437000",
          "201630.453000",
          "201630.453000",
          "201630.453000",
          "201630.453000",
          "201630.453000",
          "201630.453000",
          "201630.453000",
          "201630.468000",
          "201730.406000",
          "201730.406000",
          "201730.453000",
          "201730.453000",
          "201730.453000",
          "201730.453000",
          "201730.468000",
          "201730.468000",
          "201730.468000",
          "201730.468000",
          "201730.468000",
          "201730.468000",
          "201730.468000",
          "201730.484000",
          "201730.484000",
          "201730.484000",
          "201730.484000",
          "201730.484000",
          "201730.484000",
          "201730.484000",
          "201730.500000",
          "201730.500000",
          "201730.500000",
          "201830.406000",
          "201830.406000",
          "201830.421000",
          "201830.421000",
          "201830.421000",
          "201830.421000",
          "201830.421000",
          "201830.421000",
          "201830.421000",
          "201830.421000",
          "201830.437000",
          "201830.437000",
          "201830.437000",
          "201830.437000",
          "201830.437000",
          "201830.437000",
          "201830.437000",
          "201830.453000",
          "201830.453000",
          "201830.453000",
          "201830.453000",
          "201830.453000",
          "201830.453000",
          "201830.453000",
          "201930.406000",
          "201930.406000",
          "201930.421000",
          "201930.421000",
          "201930.421000",
          "201930.421000",
          "201930.421000",
          "201930.437000",
          "201930.437000",
          "201930.437000",
          "201930.437000",
          "201930.437000",
          "201930.437000",
          "201930.437000",
          "201930.437000",
          "201930.453000",
          "201930.453000",
          "201930.453000",
          "201930.453000",
          "201930.453000",
          "201930.468000",
          "201930.468000",
          "201930.468000",
          "202003.625000",
          "202003.625000",
          "202003.625000",
          "202003.625000",
          "202003.625000",
          "202003.640000",
          "202003.640000",
          "202003.640000",
          "202003.640000",
          "202003.640000",
          "202003.640000"
        ],
        "InstanceCreationTime": [
          "201130.406000",
          "201130.421000",
          "201130.421000",
          "201130.421000",
          "201130.421000",
          "201130.437000",
          "201130.437000",
          "201130.437000",
          "201130.437000",
          "201130.437000",
          "201130.437000",
          "201130.437000",
          "201130.453000",
          "201130.453000",
          "201130.453000",
          "201130.453000",
          "201130.453000",
          "201130.453000",
          "201130.453000",
          "201130.453000",
          "201230.406000",
          "201230.406000",
          "201230.406000",
          "201230.406000",
          "201230.406000",
          "201230.421000",
          "201230.421000",
          "201230.421000",
          "201230.421000",
          "201230.421000",
          "201230.421000",
          "201230.421000",
          "201230.421000",
          "201230.437000",
          "201230.437000",
          "201230.437000",
          "201230.437000",
          "201230.437000",
          "201230.437000",
          "201230.437000",
          "201230.453000",
          "201230.453000",
          "201230.453000",
          "201330.406000",
          "201330.406000",
          "201330.406000",
          "201330.406000",
          "201330.406000",
          "201330.421000",
          "201330.421000",
          "201330.421000",
          "201330.421000",
          "201330.421000",
          "201330.421000",
          "201330.421000",
          "201330.437000",
          "201330.437000",
          "201330.437000",
          "201330.437000",
          "201330.437000",
          "201330.437000",
          "201330.437000",
          "201330.437000",
          "201330.453000",
          "201330.453000",
          "201330.453000",
          "201430.406000",
          "201430.406000",
          "201430.406000",
          "201430.406000",
          "201430.406000",
          "201430.421000",
          "201430.421000",
          "201430.421000",
          "201430.421000",
          "201430.421000",
          "201430.421000",
          "201430.421000",
          "201430.437000",
          "201430.437000",
          "201430.437000",
          "201430.437000",
          "201430.437000",
          "201430.437000",
          "201430.437000",
          "201430.437000",
          "201430.453000",
          "201430.453000",
          "201430.453000",
          "201530.406000",
          "201530.406000",
          "201530.406000",
          "201530.421000",
          "201530.421000",
          "201530.421000",
          "201530.421000",
          "201530.421000",
          "201530.437000",
          "201530.437000",
          "201530.437000",
          "201530.437000",
          "201530.437000",
          "201530.437000",
          "201530.437000",
          "201530.453000",
          "201530.453000",
          "201530.468000",
          "201530.468000",
          "201530.468000",
          "201530.468000",
          "201530.468000",
          "201530.468000",
          "201630.406000",
          "201630.406000",
          "201630.406000",
          "201630.406000",
          "201630.406000",
          "201630.421000",
          "201630.421000",
          "201630.437000",
          "201630.437000",
          "201630.437000",
          "201630.437000",
          "201630.437000",
          "201630.437000",
          "201630.437000",
          "201630.437000",
          "201630.453000",
          "201630.453000",
          "201630.453000",
          "201630.453000",
          "201630.453000",
          "201630.453000",
          "201630.453000",
          "201630.468000",
          "201730.406000",
          "201730.406000",
          "201730.453000",
          "201730.453000",
          "201730.453000",
          "201730.453000",
          "201730.468000",
          "201730.468000",
          "201730.468000",
          "201730.468000",
          "201730.468000",
          "201730.468000",
          "201730.468000",
          "201730.484000",
          "201730.484000",
          "201730.484000",
          "201730.484000",
          "201730.484000",
          "201730.484000",
          "201730.484000",
          "201730.500000",
          "201730.500000",
          "201730.500000",
          "201830.406000",
          "201830.406000",
          "201830.421000",
          "201830.421000",
          "201830.421000",
          "201830.421000",
          "201830.421000",
          "201830.421000",
          "201830.421000",
          "201830.421000",
          "201830.437000",
          "201830.437000",
          "201830.437000",
          "201830.437000",
          "201830.437000",
          "201830.437000",
          "201830.437000",
          "201830.453000",
          "201830.453000",
          "201830.453000",
          "201830.453000",
          "201830.453000",
          "201830.453000",
          "201830.453000",
          "201930.406000",
          "201930.406000",
          "201930.421000",
          "201930.421000",
          "201930.421000",
          "201930.421000",
          "201930.421000",
          "201930.437000",
          "201930.437000",
          "201930.437000",
          "201930.437000",
          "201930.437000",
          "201930.437000",
          "201930.437000",
          "201930.437000",
          "201930.453000",
          "201930.453000",
          "201930.453000",
          "201930.453000",
          "201930.453000",
          "201930.468000",
          "201930.468000",
          "201930.468000",
          "202003.625000",
          "202003.625000",
          "202003.625000",
          "202003.625000",
          "202003.625000",
          "202003.640000",
          "202003.640000",
          "202003.640000",
          "202003.640000",
          "202003.640000",
          "202003.640000"
        ],
        "InstanceNumber": [
          1,
          2,
          3,
          4,
          5,
          6,
          7,
          8,
          9,
          10,
          11,
          12,
          13,
          14,
          15,
          16,
          17,
          18,
          19,
          20,
          21,
          22,
          23,
          24,
          25,
          26,
          27,
          28,
          29,
          30,
          31,
          32,
          33,
          34,
          35,
          36,
          37,
          38,
          39,
          40,
          41,
          42,
          43,
          44,
          45,
          46,
          47,
          48,
          49,
          50,
          51,
          52,
          53,
          54,
          55,
          56,
          57,
          58,
          59,
          60,
          61,
          62,
          63,
          64,
          65,
          66,
          67,
          68,
          69,
          70,
          71,
          72,
          73,
          74,
          75,
          76,
          77,
          78,
          79,
          80,
          81,
          82,
          83,
          84,
          85,
          86,
          87,
          88,
          89,
          90,
          91,
          92,
          93,
          94,
          95,
          96,
          97,
          98,
          99,
          100,
          101,
          102,
          103,
          104,
          105,
          106,
          107,
          108,
          109,
          110,
          111,
          112,
          113,
          114,
          115,
          116,
          117,
          118,
          119,
          120,
          121,
          122,
          123,
          124,
          125,
          126,
          127,
          128,
          129,
          130,
          131,
          132,
          133,
          134,
          135,
          136,
          137,
          138,
          139,
          140,
          141,
          142,
          143,
          144,
          145,
          146,
          147,
          148,
          149,
          150,
          151,
          152,
          153,
          154,
          155,
          156,
          157,
          158,
          159,
          160,
          161,
          162,
          163,
          164,
          165,
          166,
          167,
          168,
          169,
          170,
