{
  "aor": 0.0008420805369127517,
  "aqi": 0.012265824832214764,
  "bids_meta": {
    "AcquisitionMatrixPE": 188,
    "AcquisitionNumber": 1,
    "AcquisitionTime": "18:24:49.030000",
    "BandwidthPerPixelPhaseEncode": 19.46,
    "BaseResolution": 188,
    "ConversionSoftware": "dcm2niix",
    "ConversionSoftwareVersion": "v1.0.20180606 GCC4.8.5",
    "DelayTime": 1.2,
    "DerivedVendorReportedEchoSpacing": 0.000820013,
    "DeviceSerialNumber": "18930",
    "DwellTime": 1.9e-06,
    "EchoTime": 0.02,
    "EffectiveEchoSpacing": 0.000273338,
    "FlipAngle": 80,
    "ImageComments": "Unaliased_MB2_PE2",
    "ImageOrientationPatientDICOM": [
      0.99917,
      0.0396396,
      -0.00933193,
      -0.0159716,
      0.170651,
      -0.985202
    ],
    "ImageType": [
      "ORIGINAL",
      "PRIMARY",
      "M",
      "MB",
      "ND",
      "MOSAIC"
    ],
    "InPlanePhaseEncodingDirectionDICOM": "COL",
    "InstitutionAddress": "Oxfordlaan_55_Maastricht_753AAF_Limburg_NL_6229_EV",
    "InstitutionName": "Scannexus",
    "InstitutionalDepartmentName": "MRI_7T",
    "MRAcquisitionType": "2D",
    "MagneticFieldStrength": 6.98,
    "Manufacturer": "Siemens",
    "ManufacturersModelName": "Investigational_Device_7T",
    "Modality": "MR",
    "MultibandAccelerationFactor": 2,
    "ParallelReductionFactorInPlane": 3,
    "PartialFourier": 0.75,
    "PatientPosition": "HFS",
    "PercentPhaseFOV": 100,
    "PhaseEncodingDirection": "j",
    "PhaseEncodingSteps": 141,
    "PhaseResolution": 1,
    "PixelBandwidth": 1400,
    "ProcedureStepDescription": "FeDem_Faruk",
    "ProtocolName": "cmrr_mbep2d_bold_AP_run9",
    "PulseSequenceDetails": "%CustomerSeq%_cmrr_mbep2d_bold",
    "ReceiveCoilName": "32Ch_Head_7T",
    "ReconMatrixPE": 188,
    "RepetitionTime": 2.6,
    "SAR": 0.0872589,
    "ScanOptions": "PFP_FS",
    "ScanningSequence": "EP",
    "SequenceName": "epfid2d1_188",
    "SequenceVariant": "SK_SS",
    "SeriesDescription": "cmrr_mbep2d_bold_AP_run9",
    "SeriesNumber": 22,
    "ShimSetting": [
      93,
      -33,
      463,
      631,
      -110,
      480,
      248,
      241
    ],
    "SliceThickness": 1.1,
    "SliceTiming": [
      0,
      0.7325,
      0.06,
      0.795,
      0.1225,
      0.855,
      0.1825,
      0.915,
      0.245,
      0.9775,
      0.305,
      1.0375,
      0.365,
      1.1,
      0.4275,
      1.16,
      0.4875,
      1.2225,
      0.55,
      1.2825,
      0.61,
      1.345,
      0.6725,
      0,
      0.7325,
      0.06,
      0.795,
      0.1225,
      0.855,
      0.1825,
      0.915,
      0.245,
      0.9775,
      0.305,
      1.0375,
      0.365,
      1.1,
      0.4275,
      1.16,
      0.4875,
      1.2225,
      0.55,
      1.2825,
      0.61,
      1.345,
      0.6725
    ],
    "SoftwareVersions": "syngo_MR_B17",
    "SpacingBetweenSlices": 1.1,
    "StationName": "MRC18930",
    "TaskName": "auditory",
    "TotalReadoutTime": 0.0511141,
    "TxRefAmp": 230,
    "dataset": "ds001942",
    "dcmmeta_affine": [
      [
        -1.0948357582092285,
        -0.017500832676887512,
        0.041206520050764084,
        103.71492004394531
      ],
      [
        -0.04343484342098236,
        0.18699046969413757,
        -1.0829871892929077,
        32.03782272338867
      ],
      [
        -0.01022541057318449,
        1.079529881477356,
        0.1882573366165161,
        -118.32125091552734
      ],
      [
        0.0,
        0.0,
        0.0,
        1.0
      ]
    ],
    "dcmmeta_reorient_transform": [
      [
        0.0,
        -1.0,
        0.0,
        187.0
      ],
      [
        1.0,
        0.0,
        0.0,
        0.0
      ],
      [
        0.0,
        0.0,
        1.0,
        0.0
      ],
      [
        0.0,
        0.0,
        0.0,
        1.0
      ]
    ],
    "dcmmeta_shape": [
      188,
      188,
      46,
      150
    ],
    "dcmmeta_slice_dim": 2,
    "dcmmeta_version": 0.6,
    "global": {
      "const": {
        "AcquisitionMatrix": [
          188,
          0,
          0,
          188
        ],
        "AngioFlag": "N",
        "BitsAllocated": 16,
        "BitsStored": 12,
        "Columns": 1316,
        "EchoNumbers": 1,
        "EchoTime": 20.0,
        "EchoTrainLength": 1,
        "FlipAngle": 80.0,
        "HighBit": 11,
        "ImageOrientationPatient": [
          0.99917046595386,
          0.03963956464482,
          -0.0093319280064,
          -0.0159716336989,
          0.17065148481829,
          -0.9852019983974
        ],
        "ImagePositionPatient": [
          -708.05917272675,
          -196.96491558702,
          698.17283448398
        ],
        "ImageType": [
          "ORIGINAL",
          "PRIMARY",
          "M",
          "MB",
          "ND",
          "MOSAIC"
        ],
        "ImagedNucleus": "1H",
        "ImagingFrequency": 297.205647,
        "InPlanePhaseEncodingDirection": "COL",
        "LargestImagePixelValue": 4095,
        "MRAcquisitionType": "2D",
        "MagneticFieldStrength": 6.98,
        "Manufacturer": "SIEMENS",
        "ManufacturerModelName": "Investigational_Device_7T",
        "Modality": "MR",
        "NumberOfAverages": 1.0,
        "NumberOfPhaseEncodingSteps": 141,
        "PercentPhaseFieldOfView": 100.0,
        "PercentSampling": 100.0,
        "PerformedProcedureStepStartTime": "165528.781000",
        "PhotometricInterpretation": "MONOCHROME2",
        "PixelBandwidth": 1400.0,
        "PixelRepresentation": 0,
        "PixelSpacing": [
          1.0957447290421,
          1.0957447290421
        ],
        "ProtocolName": "cmrr_mbep2d_bold_AP_run9",
        "RepetitionTime": 2600.0,
        "Rows": 1316,
        "SAR": 0.08725886895474,
        "SamplesPerPixel": 1,
        "ScanOptions": [
          "PFP",
          "FS"
        ],
        "ScanningSequence": "EP",
        "SequenceName": "epfid2d1_188",
        "SequenceVariant": [
          "SK",
          "SS"
        ],
        "SeriesDescription": "cmrr_mbep2d_bold_AP_run9",
        "SeriesNumber": 22,
        "SeriesTime": "182458.375000",
        "SliceLocation": -47.906968081104,
        "SliceThickness": 1.1000000238419,
        "SmallestImagePixelValue": 0,
        "SoftwareVersions": "syngo MR B17",
        "SpacingBetweenSlices": 1.100000010056,
        "SpecificCharacterSet": "ISO_IR 100",
        "StudyID": "1",
        "StudyTime": "165528.750000",
        "TransmitCoilName": "32Ch_Head_7T",
        "VariableFlipAngleFlag": "N",
        "WindowCenterWidthExplanation": "Algo1",
        "dBdt": 0.0
      },
      "slices": {}
    },
    "modality": "bold",
    "run_id": 9,
    "session_id": "SES03",
    "subject_id": "S09",
    "task_id": "auditory",
    "time": {
      "samples": {
        "AcquisitionNumber": [
          1,
          2,
          3,
          4,
          5,
          6,
          7,
          8,
          9,
          10,
          11,
          12,
          13,
          14,
          15,
          16,
          17,
          18,
          19,
          20,
          21,
          22,
          23,
          24,
          25,
          26,
          27,
          28,
          29,
          30,
          31,
          32,
          33,
          34,
          35,
          36,
          37,
          38,
          39,
          40,
          41,
          42,
          43,
          44,
          45,
          46,
          47,
          48,
          49,
          50,
          51,
          52,
          53,
          54,
          55,
          56,
          57,
          58,
          59,
          60,
          61,
          62,
          63,
          64,
          65,
          66,
          67,
          68,
          69,
          70,
          71,
          72,
          73,
          74,
          75,
          76,
          77,
          78,
          79,
          80,
          81,
          82,
          83,
          84,
          85,
          86,
          87,
          88,
          89,
          90,
          91,
          92,
          93,
          94,
          95,
          96,
          97,
          98,
          99,
          100,
          101,
          102,
          103,
          104,
          105,
          106,
          107,
          108,
          109,
          110,
          111,
          112,
          113,
          114,
          115,
          116,
          117,
          118,
          119,
          120,
          121,
          122,
          123,
          124,
          125,
          126,
          127,
          128,
          129,
          130,
          131,
          132,
          133,
          134,
          135,
          136,
          137,
          138,
          139,
          140,
          141,
          142,
          143,
          144,
          145,
          146,
          147,
          148,
          149,
          150
        ],
        "AcquisitionTime": [
          "182449.030000",
          "182451.640000",
          "182454.250000",
          "182456.860000",
          "182459.472500",
          "182502.082500",
          "182504.692500",
          "182507.302500",
          "182509.912500",
          "182512.522500",
          "182515.135000",
          "182517.745000",
          "182520.355000",
          "182522.965000",
          "182525.575000",
          "182528.185000",
          "182530.797500",
          "182533.407500",
          "182536.017500",
          "182538.627500",
          "182541.237500",
          "182543.850000",
          "182546.460000",
          "182549.070000",
          "182551.680000",
          "182554.290000",
          "182556.900000",
          "182559.512500",
          "182602.122500",
          "182604.732500",
          "182607.342500",
          "182609.952500",
          "182612.562500",
          "182615.175000",
          "182617.785000",
          "182620.395000",
          "182623.005000",
          "182625.615000",
          "182628.227500",
          "182630.837500",
          "182633.447500",
          "182636.057500",
          "182638.667500",
          "182641.277500",
          "182643.890000",
          "182646.500000",
          "182649.110000",
          "182651.720000",
          "182654.330000",
          "182656.940000",
          "182659.552500",
          "182702.162500",
          "182704.772500",
          "182707.382500",
          "182709.992500",
          "182712.605000",
          "182715.215000",
          "182717.825000",
          "182720.435000",
          "182723.045000",
          "182725.655000",
          "182728.267500",
          "182730.877500",
          "182733.487500",
          "182736.097500",
          "182738.707500",
          "182741.317500",
          "182743.930000",
          "182746.540000",
          "182749.150000",
          "182751.760000",
          "182754.370000",
          "182756.982500",
          "182759.592500",
          "182802.202500",
          "182804.812500",
          "182807.422500",
          "182810.032500",
          "182812.645000",
          "182815.255000",
          "182817.865000",
          "182820.475000",
          "182823.085000",
          "182825.695000",
          "182828.307500",
          "182830.917500",
          "182833.527500",
          "182836.137500",
          "182838.747500",
          "182841.360000",
          "182843.970000",
          "182846.580000",
          "182849.190000",
          "182851.800000",
          "182854.410000",
          "182857.022500",
          "182859.632500",
          "182902.242500",
          "182904.852500",
          "182907.462500",
          "182910.072500",
          "182912.685000",
          "182915.295000",
          "182917.905000",
          "182920.515000",
          "182923.125000",
          "182925.737500",
          "182928.347500",
          "182930.957500",
          "182933.567500",
          "182936.177500",
          "182938.787500",
          "182941.400000",
          "182944.010000",
          "182946.620000",
          "182949.230000",
          "182951.840000",
          "182954.450000",
          "182957.062500",
          "182959.672500",
          "183002.282500",
          "183004.892500",
          "183007.502500",
          "183010.115000",
          "183012.725000",
          "183015.335000",
          "183017.945000",
          "183020.555000",
          "183023.165000",
          "183025.777500",
          "183028.387500",
          "183030.997500",
          "183033.607500",
          "183036.217500",
          "183038.827500",
          "183041.440000",
          "183044.050000",
          "183046.660000",
          "183049.270000",
          "183051.880000",
          "183054.492500",
          "183057.102500",
          "183059.712500",
          "183102.322500",
          "183104.932500",
          "183107.542500",
          "183110.155000",
          "183112.765000",
          "183115.375000",
          "183117.985000"
        ],
        "ContentTime": [
          "182458.375000",
          "182458.859000",
          "182459.359000",
          "182501.859000",
          "182504.359000",
          "182506.859000",
          "182509.359000",
          "182512.359000",
          "182514.859000",
          "182517.359000",
          "182519.859000",
          "182522.359000",
          "182525.359000",
          "182527.859000",
          "182530.359000",
          "182532.859000",
          "182535.359000",
          "182538.359000",
          "182540.859000",
          "182543.359000",
          "182545.859000",
          "182548.359000",
          "182551.359000",
          "182553.859000",
          "182556.359000",
          "182558.859000",
          "182601.359000",
          "182604.359000",
          "182606.859000",
          "182609.359000",
          "182611.859000",
          "182614.359000",
          "182617.359000",
          "182619.859000",
          "182622.359000",
          "182624.859000",
          "182627.359000",
          "182630.359000",
          "182632.859000",
          "182635.359000",
          "182637.859000",
          "182640.359000",
          "182643.359000",
          "182645.859000",
          "182648.359000",
          "182650.859000",
          "182653.359000",
          "182656.359000",
          "182658.859000",
          "182701.359000",
          "182703.859000",
          "182706.359000",
          "182709.359000",
          "182711.859000",
          "182714.359000",
          "182716.875000",
          "182719.359000",
          "182722.359000",
          "182724.859000",
          "182727.359000",
          "182729.859000",
          "182732.359000",
          "182735.359000",
          "182737.859000",
          "182740.359000",
          "182742.859000",
          "182745.359000",
          "182748.359000",
          "182750.859000",
          "182753.359000",
          "182755.859000",
          "182758.359000",
          "182801.359000",
          "182803.859000",
          "182806.359000",
          "182808.859000",
          "182811.359000",
          "182814.359000",
          "182816.859000",
          "182819.359000",
          "182821.859000",
          "182824.359000",
          "182827.359000",
          "182829.859000",
          "182832.359000",
          "182834.859000",
          "182837.359000",
          "182840.359000",
          "182842.859000",
          "182845.359000",
          "182847.859000",
          "182850.359000",
          "182853.359000",
          "182855.859000",
          "182858.359000",
          "182900.859000",
          "182903.359000",
          "182906.359000",
          "182908.859000",
          "182911.359000",
          "182913.859000",
          "182916.359000",
          "182919.359000",
          "182921.859000",
          "182924.359000",
          "182926.875000",
          "182929.359000",
          "182932.359000",
          "182934.859000",
          "182937.359000",
          "182939.859000",
          "182942.359000",
          "182945.359000",
          "182947.859000",
          "182950.359000",
          "182952.859000",
          "182955.359000",
          "182958.359000",
          "183000.859000",
          "183003.359000",
          "183005.859000",
          "183008.359000",
          "183011.359000",
          "183013.859000",
          "183016.359000",
          "183018.859000",
          "183021.359000",
          "183024.359000",
          "183026.859000",
          "183029.359000",
          "183031.859000",
          "183034.359000",
          "183037.359000",
          "183039.859000",
          "183042.359000",
          "183044.859000",
          "183047.359000",
          "183050.359000",
          "183052.859000",
          "183055.359000",
          "183057.859000",
          "183100.359000",
          "183103.359000",
          "183105.859000",
          "183108.359000",
          "183110.859000",
          "183113.359000",
          "183116.359000",
          "183118.859000",
          "183126.093000"
        ],
        "InstanceCreationTime": [
          "182458.375000",
          "182458.859000",
          "182459.359000",
          "182501.859000",
          "182504.359000",
          "182506.859000",
          "182509.359000",
          "182512.359000",
          "182514.859000",
          "182517.359000",
          "182519.859000",
          "182522.359000",
          "182525.359000",
          "182527.859000",
          "182530.359000",
          "182532.859000",
          "182535.359000",
          "182538.359000",
          "182540.859000",
          "182543.359000",
          "182545.859000",
          "182548.359000",
          "182551.359000",
          "182553.859000",
          "182556.359000",
          "182558.859000",
          "182601.359000",
          "182604.359000",
          "182606.859000",
          "182609.359000",
          "182611.859000",
          "182614.359000",
          "182617.359000",
          "182619.859000",
          "182622.359000",
          "182624.859000",
          "182627.359000",
          "182630.359000",
          "182632.859000",
          "182635.359000",
          "182637.859000",
          "182640.359000",
          "182643.359000",
          "182645.859000",
          "182648.359000",
          "182650.859000",
          "182653.359000",
          "182656.359000",
          "182658.859000",
          "182701.359000",
          "182703.859000",
          "182706.359000",
          "182709.359000",
          "182711.859000",
          "182714.359000",
          "182716.875000",
          "182719.359000",
          "182722.359000",
          "182724.859000",
          "182727.359000",
          "182729.859000",
          "182732.359000",
          "182735.359000",
          "182737.859000",
          "182740.359000",
          "182742.859000",
          "182745.359000",
          "182748.359000",
          "182750.859000",
          "182753.359000",
          "182755.859000",
          "182758.359000",
          "182801.359000",
          "182803.859000",
          "182806.359000",
          "182808.859000",
          "182811.359000",
          "182814.359000",
          "182816.859000",
          "182819.359000",
          "182821.859000",
          "182824.359000",
          "182827.359000",
          "182829.859000",
          "182832.359000",
          "182834.859000",
          "182837.359000",
          "182840.359000",
          "182842.859000",
          "182845.359000",
          "182847.859000",
          "182850.359000",
          "182853.359000",
          "182855.859000",
          "182858.359000",
          "182900.859000",
          "182903.359000",
          "182906.359000",
          "182908.859000",
          "182911.359000",
          "182913.859000",
          "182916.359000",
          "182919.359000",
          "182921.859000",
          "182924.359000",
          "182926.875000",
          "182929.359000",
          "182932.359000",
          "182934.859000",
          "182937.359000",
          "182939.859000",
          "182942.359000",
          "182945.359000",
          "182947.859000",
          "182950.359000",
          "182952.859000",
          "182955.359000",
          "182958.359000",
          "183000.859000",
          "183003.359000",
          "183005.859000",
          "183008.359000",
          "183011.359000",
          "183013.859000",
          "183016.359000",
          "183018.859000",
          "183021.359000",
          "183024.359000",
          "183026.859000",
          "183029.359000",
          "183031.859000",
          "183034.359000",
          "183037.359000",
          "183039.859000",
          "183042.359000",
          "183044.859000",
          "183047.359000",
          "183050.359000",
          "183052.859000",
          "183055.359000",
          "183057.859000",
          "183100.359000",
          "183103.359000",
          "183105.859000",
          "183108.359000",
          "183110.859000",
          "183113.359000",
          "183116.359000",
          "183118.859000",
          "183126.093000"
        ],
        "InstanceNumber": [
          1,
          2,
          3,
          4,
          5,
          6,
          7,
          8,
          9,
          10,
          11,
          12,
          13,
          14,
          15,
          16,
          17,
          18,
          19,
          20,
          21,
          22,
          23,
          24,
          25,
          26,
          27,
          28,
          29,
          30,
          31,
          32,
          33,
          34,
          35,
          36,
          37,
          38,
          39,
          40,
          41,
          42,
          43,
          44,
          45,
          46,
          47,
          48,
          49,
          50,
          51,
          52,
          53,
          54,
          55,
          56,
          57,
          58,
          59,
          60,
          61,
          62,
          63,
          64,
          65,
          66,
          67,
          68,
          69,
          70,
          71,
          72,
          73,
          74,
          75,
          76,
          77,
          78,
          79,
          80,
          81,
          82,
          83,
          84,
          85,
          86,
          87,
          88,
          89,
          90,
          91,
          92,
          93,
          94,
          95,
          96,
          97,
          98,
          99,
          100,
          101,
          102,
          103,
          104,
          105,
          106,
          107,
          108,
          109,
          110,
          111,
          112,
          113,
          114,
          115,
          116,
          117,
          118,
          119,
          120,
          121,
          122,
          123,
          124,
          125,
          126,
          127,
          128,
          129,
          130,
          131,
          132,
          133,
          134,
          135,
          136,
          137,
          138,
          139,
          140,
          141,
          142,
          143,
          144,
          145,
          146,
          147,
          148,
          149,
          150
        ],
        "WindowCenter": [
          869.0,
          866.0,
          865.0,
          865.0,
          866.0,
          866.0,
          866.0,
          866.0,
          866.0,
          866.0,
          867.0,
          867.0,
          867.0,
          865.0,
          866.0,
          869.0,
          867.0,
          864.0,
          866.0,
          867.0,
          866.0,
          866.0,
          866.0,
          866.0,
          867.0,
          866.0,
          866.0,
          866.0,
          866.0,
          866.0,
          866.0,
          867.0,
          866.0,
          866.0,
          866.0,
          866.0,
          866.0,
          866.0,
          866.0,
          866.0,
          866.0,
          866.0,
          866.0,
          867.0,
          866.0,
          867.0,
          867.0,
          866.0,
          865.0,
          866.0,
          868.0,
          867.0,
          867.0,
          867.0,
          868.0,
          866.0,
          866.0,
          867.0,
          867.0,
          866.0,
          866.0,
          867.0,
          867.0,
          866.0,
          866.0,
          867.0,
          867.0,
          866.0,
          866.0,
          868.0,
          868.0,
          866.0,
          867.0,
          868.0,
          867.0,
          866.0,
          867.0,
          867.0,
          866.0,
          867.0,
          866.0,
          866.0,
          869.0,
          868.0,
          866.0,
          867.0,
          867.0,
          868.0,
          866.0,
          865.0,
          867.0,
          868.0,
          867.0,
          866.0,
          867.0,
          868.0,
          868.0,
          866.0,
          866.0,
          867.0,
          867.0,
          867.0,
          868.0,
          868.0,
          866.0,
          867.0,
          869.0,
          868.0,
          866.0,
          866.0,
          866.0,
          868.0,
          867.0,
          865.0,
          867.0,
          865.0,
          865.0,
          867.0,
          868.0,
          867.0,
          867.0,
          867.0,
          867.0,
          868.0,
          869.0,
          867.0,
          866.0,
          867.0,
          867.0,
          867.0,
          866.0,
          867.0,
          866.0,
          866.0,
          866.0,
          867.0,
          867.0,
          868.0,
          868.0,
          867.0,
          867.0,
          867.0,
          867.0,
          867.0,
          867.0,
          866.0,
          867.0,
          867.0,
          867.0,
          867.0
        ],
        "WindowWidth": [
          2008.0,
          1998.0,
          1995.0,
          1995.0,
          1996.0,
          1998.0,
          1997.0,
          1997.0,
          2000.0,
          1998.0,
          2002.0,
          2002.0,
          1999.0,
          1995.0,
          1997.0,
          2009.0,
          2001.0,
          1990.0,
          1997.0,
          2001.0,
          1996.0,
          1997.0,
          1998.0,
          1998.0,
          2000.0,
          1999.0,
          1996.0,
          1997.0,
          1997.0,
          1996.0,
          1999.0,
          2001.0,
          1998.0,
          1995.0,
          1998.0,
          1996.0,
          1998.0,
          1997.0,
          1997.0,
          1996.0,
          1998.0,
          1997.0,
          1997.0,
          2000.0,
          1998.0,
          2000.0,
          2000.0,
          1998.0,
          1994.0,
          1996.0,
          2004.0,
          2000.0,
          2001.0,
          2004.0,
          2004.0,
          1996.0,
          1997.0,
          2002.0,
          2001.0,
          1996.0,
          1999.0,
          2000.0,
          1999.0,
          1999.0,
          1998.0,
          2001.0,
          2000.0,
          1998.0,
          1998.0,
          2003.0,
          2002.0,
          1997.0,
          2002.0,
          2005.0,
          1999.0,
          1997.0,
          2001.0,
          1999.0,
          1998.0,
          2000.0,
          1998.0,
          1997.0,
          2006.0,
          2003.0,
          1997.0,
          2001.0,
          2004.0,
          2005.0,
          1997.0,
          1995.0,
          2001.0,
          2002.0,
          2000.0,
          1998.0,
          2000.0,
          2007.0,
          2004.0,
          1998.0,
          1998.0,
          2002.0,
          2001.0,
          2001.0,
          2004.0,
          2002.0,
          1998.0,
          2001.0,
          2007.0,
          2004.0,
          1998.0,
          1997.0,
          1999.0,
          2003.0,
          1999.0,
          1994.0,
          1999.0,
          1994.0,
          1995.0,
          1999.0,
          2002.0,
          2002.0,
          2000.0,
          1999.0,
          2002.0,
          2002.0,
          2007.0,
          2001.0,
          1997.0,
          1999.0,
          2002.0,
          2000.0,
          1997.0,
          1999.0,
          1998.0,
          1999.0,
          1998.0,
          2001.0,
          2002.0,
          2003.0,
          2003.0,
          2002.0,
          2001.0,
          1999.0,
          2000.0,
          2000.0,
          2000.0,
          1998.0,
          2000.0,
          1999.0,
          1999.0,
          2002.0
        ]
      },
      "slices": {}
    }
  },
  "dummy_trs": 1,
  "dvars_nstd": 73.74072626479729,
  "dvars_std": 1.0768745691216215,
  "dvars_vstd": 1.0144881840540534,
  "efc": 0.5534176836808489,
  "fber": 401.7320556640625,
  "fd_mean": 0.04160766210891505,
  "fd_num": 2,
  "fd_perc": 1.342281879194631,
  "fwhm_avg": 2.750037141457969,
  "fwhm_x": 2.6586849316143906,
  "fwhm_y": 2.627144738826775,
  "fwhm_z": 2.9642817539327413,
  "gcor": 0.00186067,
  "gsr_x": -0.021668754518032074,
  "gsr_y": 0.07656710594892502,
  "provenance": {
    "md5sum": "cbe76449533b5ad3526f77e864b45f1a",
    "settings": {
      "fd_thres": 0.2,
      "testing": false
    },
    "software": "mriqc",
    "version": "23.0.1",
    "webapi_port": null,
    "webapi_url": "https://mriqc.nimh.nih.gov/api/v1"
  },
  "size_t": 149,
  "size_x": 188,
  "size_y": 188,
  "size_z": 46,
  "snr": 2.1137855637394867,
  "spacing_tr": 2.5999999046325684,
  "spacing_x": 1.0957447290420532,
  "spacing_y": 1.0957447290420532,
  "spacing_z": 1.100000023841858,
  "summary_bg_k": 41.42564211834207,
  "summary_bg_mad": 22.597246994905383,
  "summary_bg_mean": 86.4698486328125,
  "summary_bg_median": 46.85234832763672,
  "summary_bg_n": 1073356.0,
  "summary_bg_p05": 30.07382583618164,
  "summary_bg_p95": 267.9530334472656,
