{
  "aor": 0.0006159333333333332,
  "aqi": 0.012025463333333333,
  "bids_meta": {
    "AcquisitionMatrixPE": 188,
    "AcquisitionNumber": 1,
    "AcquisitionTime": "18:48:1.017500",
    "BandwidthPerPixelPhaseEncode": 19.46,
    "BaseResolution": 188,
    "CogAtlasID": "TODO",
    "ConversionSoftware": "dcm2niix",
    "ConversionSoftwareVersion": "v1.0.20180606 GCC4.8.5",
    "DelayTime": 1.2,
    "DerivedVendorReportedEchoSpacing": 0.000820013,
    "DeviceSerialNumber": "18930",
    "DwellTime": 1.9e-06,
    "EchoTime": 0.02,
    "EffectiveEchoSpacing": 0.000273338,
    "FlipAngle": 80,
    "ImageComments": "Unaliased_MB2_PE2",
    "ImageOrientationPatientDICOM": [
      0.99917,
      0.0396396,
      -0.00933193,
      -0.0159716,
      0.170651,
      -0.985202
    ],
    "ImageType": [
      "ORIGINAL",
      "PRIMARY",
      "M",
      "MB",
      "ND",
      "MOSAIC"
    ],
    "InPlanePhaseEncodingDirectionDICOM": "COL",
    "InstitutionAddress": "Oxfordlaan_55_Maastricht_753AAF_Limburg_NL_6229_EV",
    "InstitutionName": "Scannexus",
    "InstitutionalDepartmentName": "MRI_7T",
    "MRAcquisitionType": "2D",
    "MagneticFieldStrength": 6.98,
    "Manufacturer": "Siemens",
    "ManufacturersModelName": "Investigational_Device_7T",
    "Modality": "MR",
    "MultibandAccelerationFactor": 2,
    "ParallelReductionFactorInPlane": 3,
    "PartialFourier": 0.75,
    "PatientPosition": "HFS",
    "PercentPhaseFOV": 100,
    "PhaseEncodingDirection": "j",
    "PhaseEncodingSteps": 141,
    "PhaseResolution": 1,
    "PixelBandwidth": 1400,
    "ProcedureStepDescription": "FeDem_Faruk",
    "ProtocolName": "cmrr_mbep2d_bold_AP_run12",
    "PulseSequenceDetails": "%CustomerSeq%_cmrr_mbep2d_bold",
    "ReceiveCoilName": "32Ch_Head_7T",
    "ReconMatrixPE": 188,
    "RepetitionTime": 2.6,
    "SAR": 0.0872727,
    "ScanOptions": "PFP_FS",
    "ScanningSequence": "EP",
    "SequenceName": "epfid2d1_188",
    "SequenceVariant": "SK_SS",
    "SeriesDescription": "cmrr_mbep2d_bold_AP_run12",
    "SeriesNumber": 25,
    "ShimSetting": [
      93,
      -33,
      463,
      631,
      -110,
      480,
      248,
      241
    ],
    "SliceThickness": 1.1,
    "SliceTiming": [
      0,
      0.7325,
      0.0625,
      0.795,
      0.1225,
      0.855,
      0.1825,
      0.9175,
      0.245,
      0.9775,
      0.305,
      1.04,
      0.3675,
      1.1,
      0.4275,
      1.16,
      0.49,
      1.2225,
      0.55,
      1.2825,
      0.61,
      1.345,
      0.6725,
      0,
      0.7325,
      0.0625,
      0.795,
      0.1225,
      0.855,
      0.1825,
      0.9175,
      0.245,
      0.9775,
      0.305,
      1.04,
      0.3675,
      1.1,
      0.4275,
      1.16,
      0.49,
      1.2225,
      0.55,
      1.2825,
      0.61,
      1.345,
      0.6725
    ],
    "SoftwareVersions": "syngo_MR_B17",
    "SpacingBetweenSlices": 1.1,
    "StationName": "MRC18930",
    "TaskName": "auditory",
    "TotalReadoutTime": 0.0511141,
    "TxRefAmp": 230,
    "dataset": "ds001942",
    "dcmmeta_affine": [
      [
        -1.0948357582092285,
        -0.017500832676887512,
        0.041206520050764084,
        103.71492004394531
      ],
      [
        -0.04343484342098236,
        0.18699046969413757,
        -1.0829871892929077,
        32.03782272338867
      ],
      [
        -0.01022541057318449,
        1.079529881477356,
        0.1882573366165161,
        -118.32125091552734
      ],
      [
        0.0,
        0.0,
        0.0,
        1.0
      ]
    ],
    "dcmmeta_reorient_transform": [
      [
        0.0,
        -1.0,
        0.0,
        187.0
      ],
      [
        1.0,
        0.0,
        0.0,
        0.0
      ],
      [
        0.0,
        0.0,
        1.0,
        0.0
      ],
      [
        0.0,
        0.0,
        0.0,
        1.0
      ]
    ],
    "dcmmeta_shape": [
      188,
      188,
      46,
      150
    ],
    "dcmmeta_slice_dim": 2,
    "dcmmeta_version": 0.6,
    "global": {
      "const": {
        "AcquisitionMatrix": [
          188,
          0,
          0,
          188
        ],
        "AngioFlag": "N",
        "BitsAllocated": 16,
        "BitsStored": 12,
        "Columns": 1316,
        "EchoNumbers": 1,
        "EchoTime": 20.0,
        "EchoTrainLength": 1,
        "FlipAngle": 80.0,
        "HighBit": 11,
        "ImageOrientationPatient": [
          0.99917046595386,
          0.03963956464482,
          -0.0093319280064,
          -0.0159716336989,
          0.17065148481829,
          -0.9852019983974
        ],
        "ImagePositionPatient": [
          -708.05917272675,
          -196.96491558702,
          698.17283448398
        ],
        "ImageType": [
          "ORIGINAL",
          "PRIMARY",
          "M",
          "MB",
          "ND",
          "MOSAIC"
        ],
        "ImagedNucleus": "1H",
        "ImagingFrequency": 297.205654,
        "InPlanePhaseEncodingDirection": "COL",
        "LargestImagePixelValue": 4095,
        "MRAcquisitionType": "2D",
        "MagneticFieldStrength": 6.98,
        "Manufacturer": "SIEMENS",
        "ManufacturerModelName": "Investigational_Device_7T",
        "Modality": "MR",
        "NumberOfAverages": 1.0,
        "NumberOfPhaseEncodingSteps": 141,
        "PercentPhaseFieldOfView": 100.0,
        "PercentSampling": 100.0,
        "PerformedProcedureStepStartTime": "165528.781000",
        "PhotometricInterpretation": "MONOCHROME2",
        "PixelBandwidth": 1400.0,
        "PixelRepresentation": 0,
        "PixelSpacing": [
          1.0957447290421,
          1.0957447290421
        ],
        "ProtocolName": "cmrr_mbep2d_bold_AP_run12",
        "RepetitionTime": 2600.0,
        "Rows": 1316,
        "SAR": 0.08727265216992,
        "SamplesPerPixel": 1,
        "ScanOptions": [
          "PFP",
          "FS"
        ],
        "ScanningSequence": "EP",
        "SequenceName": "epfid2d1_188",
        "SequenceVariant": [
          "SK",
          "SS"
        ],
        "SeriesDescription": "cmrr_mbep2d_bold_AP_run12",
        "SeriesNumber": 25,
        "SeriesTime": "184810.921000",
        "SliceLocation": -47.906968081104,
        "SliceThickness": 1.1000000238419,
        "SmallestImagePixelValue": 0,
        "SoftwareVersions": "syngo MR B17",
        "SpacingBetweenSlices": 1.100000010056,
        "SpecificCharacterSet": "ISO_IR 100",
        "StudyID": "1",
        "StudyTime": "165528.750000",
        "TransmitCoilName": "32Ch_Head_7T",
        "VariableFlipAngleFlag": "N",
        "WindowCenterWidthExplanation": "Algo1",
        "dBdt": 0.0
      },
      "slices": {}
    },
    "modality": "bold",
    "run_id": 12,
    "session_id": "SES03",
    "subject_id": "S09",
    "task_id": "auditory",
    "time": {
      "samples": {
        "AcquisitionNumber": [
          1,
          2,
          3,
          4,
          5,
          6,
          7,
          8,
          9,
          10,
          11,
          12,
          13,
          14,
          15,
          16,
          17,
          18,
          19,
          20,
          21,
          22,
          23,
          24,
          25,
          26,
          27,
          28,
          29,
          30,
          31,
          32,
          33,
          34,
          35,
          36,
          37,
          38,
          39,
          40,
          41,
          42,
          43,
          44,
          45,
          46,
          47,
          48,
          49,
          50,
          51,
          52,
          53,
          54,
          55,
          56,
          57,
          58,
          59,
          60,
          61,
          62,
          63,
          64,
          65,
          66,
          67,
          68,
          69,
          70,
          71,
          72,
          73,
          74,
          75,
          76,
          77,
          78,
          79,
          80,
          81,
          82,
          83,
          84,
          85,
          86,
          87,
          88,
          89,
          90,
          91,
          92,
          93,
          94,
          95,
          96,
          97,
          98,
          99,
          100,
          101,
          102,
          103,
          104,
          105,
          106,
          107,
          108,
          109,
          110,
          111,
          112,
          113,
          114,
          115,
          116,
          117,
          118,
          119,
          120,
          121,
          122,
          123,
          124,
          125,
          126,
          127,
          128,
          129,
          130,
          131,
          132,
          133,
          134,
          135,
          136,
          137,
          138,
          139,
          140,
          141,
          142,
          143,
          144,
          145,
          146,
          147,
          148,
          149,
          150
        ],
        "AcquisitionTime": [
          "184801.017500",
          "184803.627500",
          "184806.237500",
          "184808.850000",
          "184811.460000",
          "184814.070000",
          "184816.680000",
          "184819.290000",
          "184821.900000",
          "184824.512500",
          "184827.122500",
          "184829.732500",
          "184832.342500",
          "184834.952500",
          "184837.565000",
          "184840.175000",
          "184842.785000",
          "184845.395000",
          "184848.005000",
          "184850.615000",
          "184853.227500",
          "184855.837500",
          "184858.447500",
          "184901.057500",
          "184903.667500",
          "184906.277500",
          "184908.890000",
          "184911.500000",
          "184914.110000",
          "184916.720000",
          "184919.330000",
          "184921.942500",
          "184924.552500",
          "184927.162500",
          "184929.772500",
          "184932.382500",
          "184934.992500",
          "184937.605000",
          "184940.215000",
          "184942.825000",
          "184945.435000",
          "184948.045000",
          "184950.657500",
          "184953.267500",
          "184955.877500",
          "184958.487500",
          "185001.097500",
          "185003.707500",
          "185006.320000",
          "185008.930000",
          "185011.540000",
          "185014.150000",
          "185016.760000",
          "185019.370000",
          "185021.982500",
          "185024.592500",
          "185027.202500",
          "185029.812500",
          "185032.422500",
          "185035.035000",
          "185037.645000",
          "185040.255000",
          "185042.865000",
          "185045.475000",
          "185048.085000",
          "185050.697500",
          "185053.307500",
          "185055.917500",
          "185058.527500",
          "185101.137500",
          "185103.747500",
          "185106.360000",
          "185108.970000",
          "185111.580000",
          "185114.190000",
          "185116.800000",
          "185119.412500",
          "185122.022500",
          "185124.632500",
          "185127.242500",
          "185129.852500",
          "185132.462500",
          "185135.075000",
          "185137.685000",
          "185140.295000",
          "185142.905000",
          "185145.515000",
          "185148.125000",
          "185150.737500",
          "185153.347500",
          "185155.957500",
          "185158.567500",
          "185201.177500",
          "185203.790000",
          "185206.400000",
          "185209.010000",
          "185211.620000",
          "185214.230000",
          "185216.840000",
          "185219.452500",
          "185222.062500",
          "185224.672500",
          "185227.282500",
          "185229.892500",
          "185232.502500",
          "185235.115000",
          "185237.725000",
          "185240.335000",
          "185242.945000",
          "185245.555000",
          "185248.167500",
          "185250.777500",
          "185253.387500",
          "185255.997500",
          "185258.607500",
          "185301.217500",
          "185303.830000",
          "185306.440000",
          "185309.050000",
          "185311.660000",
          "185314.270000",
          "185316.880000",
          "185319.492500",
          "185322.102500",
          "185324.712500",
          "185327.322500",
          "185329.932500",
          "185332.545000",
          "185335.155000",
          "185337.765000",
          "185340.375000",
          "185342.985000",
          "185345.595000",
          "185348.207500",
          "185350.817500",
          "185353.427500",
          "185356.037500",
          "185358.647500",
          "185401.257500",
          "185403.870000",
          "185406.480000",
          "185409.090000",
          "185411.700000",
          "185414.310000",
          "185416.922500",
          "185419.532500",
          "185422.142500",
          "185424.752500",
          "185427.362500",
          "185429.972500"
        ],
        "ContentTime": [
          "184810.937000",
          "184811.906000",
          "184811.921000",
          "184814.406000",
          "184816.921000",
          "184819.421000",
          "184821.921000",
          "184824.921000",
          "184827.421000",
          "184829.921000",
          "184832.421000",
          "184834.921000",
          "184837.921000",
          "184840.406000",
          "184842.921000",
          "184845.406000",
          "184847.921000",
          "184850.406000",
          "184853.421000",
          "184855.921000",
          "184858.421000",
          "184900.921000",
          "184903.921000",
          "184906.421000",
          "184908.921000",
          "184911.421000",
          "184913.921000",
          "184916.921000",
          "184919.421000",
          "184921.921000",
          "184924.421000",
          "184926.921000",
          "184929.906000",
          "184932.406000",
          "184934.921000",
          "184937.421000",
          "184939.921000",
          "184942.421000",
          "184945.406000",
          "184947.921000",
          "184950.406000",
          "184952.921000",
          "184955.921000",
          "184958.421000",
          "185000.921000",
          "185003.406000",
          "185005.921000",
          "185008.406000",
          "185011.421000",
          "185013.921000",
          "185016.421000",
          "185018.921000",
          "185021.921000",
          "185024.421000",
          "185026.921000",
          "185029.421000",
          "185031.921000",
          "185034.921000",
          "185037.421000",
          "185039.921000",
          "185042.421000",
          "185044.921000",
          "185047.921000",
          "185050.421000",
          "185052.921000",
          "185055.406000",
          "185057.921000",
          "185100.921000",
          "185103.406000",
          "185105.921000",
          "185108.421000",
          "185110.921000",
          "185113.921000",
          "185116.421000",
          "185118.921000",
          "185121.421000",
          "185123.921000",
          "185126.421000",
          "185129.421000",
          "185131.921000",
          "185134.421000",
          "185136.921000",
          "185139.921000",
          "185142.421000",
          "185144.921000",
          "185147.421000",
          "185149.921000",
          "185152.406000",
          "185155.406000",
          "185157.921000",
          "185200.406000",
          "185202.921000",
          "185205.921000",
          "185208.421000",
          "185210.921000",
          "185213.421000",
          "185215.921000",
          "185218.921000",
          "185221.421000",
          "185223.921000",
          "185226.421000",
          "185228.921000",
          "185231.921000",
          "185234.421000",
          "185236.921000",
          "185239.421000",
          "185241.921000",
          "185244.921000",
          "185247.421000",
          "185249.921000",
          "185252.421000",
          "185254.921000",
          "185257.921000",
          "185300.406000",
          "185302.921000",
          "185305.421000",
          "185307.921000",
          "185310.921000",
          "185313.421000",
          "185315.921000",
          "185318.421000",
          "185320.921000",
          "185323.921000",
          "185326.421000",
          "185328.921000",
          "185331.421000",
          "185333.921000",
          "185336.421000",
          "185339.421000",
          "185341.921000",
          "185344.421000",
          "185346.921000",
          "185349.406000",
          "185352.421000",
          "185354.921000",
          "185357.421000",
          "185359.921000",
          "185402.921000",
          "185405.406000",
          "185407.921000",
          "185410.421000",
          "185412.921000",
          "185415.421000",
          "185418.421000",
          "185420.921000",
          "185423.421000",
          "185425.921000",
          "185428.921000",
          "185431.421000",
          "185438.609000"
        ],
        "InstanceCreationTime": [
          "184810.937000",
          "184811.906000",
          "184811.921000",
          "184814.406000",
          "184816.921000",
          "184819.421000",
          "184821.921000",
          "184824.921000",
          "184827.421000",
          "184829.921000",
          "184832.421000",
          "184834.921000",
          "184837.921000",
          "184840.406000",
          "184842.921000",
          "184845.406000",
          "184847.921000",
          "184850.406000",
          "184853.421000",
          "184855.921000",
          "184858.421000",
          "184900.921000",
          "184903.921000",
          "184906.421000",
          "184908.921000",
          "184911.421000",
          "184913.921000",
          "184916.921000",
          "184919.421000",
          "184921.921000",
          "184924.421000",
          "184926.921000",
          "184929.906000",
          "184932.406000",
          "184934.921000",
          "184937.421000",
          "184939.921000",
          "184942.421000",
          "184945.406000",
          "184947.921000",
          "184950.406000",
          "184952.921000",
          "184955.921000",
          "184958.421000",
          "185000.921000",
          "185003.406000",
          "185005.921000",
          "185008.406000",
          "185011.421000",
          "185013.921000",
          "185016.421000",
          "185018.921000",
          "185021.921000",
          "185024.421000",
          "185026.921000",
          "185029.421000",
          "185031.921000",
          "185034.921000",
          "185037.421000",
          "185039.921000",
          "185042.421000",
          "185044.921000",
          "185047.921000",
          "185050.421000",
          "185052.921000",
          "185055.406000",
          "185057.921000",
          "185100.921000",
          "185103.406000",
          "185105.921000",
          "185108.421000",
          "185110.921000",
          "185113.921000",
          "185116.421000",
          "185118.921000",
          "185121.421000",
          "185123.921000",
          "185126.421000",
          "185129.421000",
          "185131.921000",
          "185134.421000",
          "185136.921000",
          "185139.921000",
          "185142.421000",
          "185144.921000",
          "185147.421000",
          "185149.921000",
          "185152.406000",
          "185155.406000",
          "185157.921000",
          "185200.406000",
          "185202.921000",
          "185205.921000",
          "185208.421000",
          "185210.921000",
          "185213.421000",
          "185215.921000",
          "185218.921000",
          "185221.421000",
          "185223.921000",
          "185226.421000",
          "185228.921000",
          "185231.921000",
          "185234.421000",
          "185236.921000",
          "185239.421000",
          "185241.921000",
          "185244.921000",
          "185247.421000",
          "185249.921000",
          "185252.421000",
          "185254.921000",
          "185257.921000",
          "185300.406000",
          "185302.921000",
          "185305.421000",
          "185307.921000",
          "185310.921000",
          "185313.421000",
          "185315.921000",
          "185318.421000",
          "185320.921000",
          "185323.921000",
          "185326.421000",
          "185328.921000",
          "185331.421000",
          "185333.921000",
          "185336.421000",
          "185339.421000",
          "185341.921000",
          "185344.421000",
          "185346.921000",
          "185349.406000",
          "185352.421000",
          "185354.921000",
          "185357.421000",
          "185359.921000",
          "185402.921000",
          "185405.406000",
          "185407.921000",
          "185410.421000",
          "185412.921000",
          "185415.421000",
          "185418.421000",
          "185420.921000",
          "185423.421000",
          "185425.921000",
          "185428.921000",
          "185431.421000",
          "185438.609000"
        ],
        "InstanceNumber": [
          1,
          2,
          3,
          4,
          5,
          6,
          7,
          8,
          9,
          10,
          11,
          12,
          13,
          14,
          15,
          16,
          17,
          18,
          19,
          20,
          21,
          22,
          23,
          24,
          25,
          26,
          27,
          28,
          29,
          30,
          31,
          32,
          33,
          34,
          35,
          36,
          37,
          38,
          39,
          40,
          41,
          42,
          43,
          44,
          45,
          46,
          47,
          48,
          49,
          50,
          51,
          52,
          53,
          54,
          55,
          56,
          57,
          58,
          59,
          60,
          61,
          62,
          63,
          64,
          65,
          66,
          67,
          68,
          69,
          70,
          71,
          72,
          73,
          74,
          75,
          76,
          77,
          78,
          79,
          80,
          81,
          82,
          83,
          84,
          85,
          86,
          87,
          88,
          89,
          90,
          91,
          92,
          93,
          94,
          95,
          96,
          97,
          98,
          99,
          100,
          101,
          102,
          103,
          104,
          105,
          106,
          107,
          108,
          109,
          110,
          111,
          112,
          113,
          114,
          115,
          116,
          117,
          118,
          119,
          120,
          121,
          122,
          123,
          124,
          125,
          126,
          127,
          128,
          129,
          130,
          131,
          132,
          133,
          134,
          135,
          136,
          137,
          138,
          139,
          140,
          141,
          142,
          143,
          144,
          145,
          146,
          147,
          148,
          149,
          150
        ],
        "WindowCenter": [
          871.0,
          869.0,
          869.0,
          870.0,
          869.0,
          868.0,
          870.0,
          869.0,
          868.0,
          868.0,
          869.0,
          870.0,
          869.0,
          866.0,
          867.0,
          868.0,
          869.0,
          868.0,
          869.0,
          869.0,
          867.0,
          868.0,
          869.0,
          869.0,
          868.0,
          867.0,
          869.0,
          868.0,
          868.0,
          869.0,
          868.0,
          867.0,
          868.0,
          869.0,
          868.0,
          867.0,
          869.0,
          870.0,
          869.0,
          869.0,
          871.0,
          867.0,
          866.0,
          867.0,
          869.0,
          869.0,
          869.0,
          867.0,
          867.0,
          869.0,
          869.0,
          867.0,
          869.0,
          870.0,
          867.0,
          867.0,
          869.0,
          870.0,
          868.0,
          868.0,
          869.0,
          868.0,
          868.0,
          868.0,
          869.0,
          870.0,
          869.0,
          868.0,
          869.0,
          869.0,
          868.0,
          868.0,
          869.0,
          869.0,
          868.0,
          870.0,
          871.0,
          868.0,
          867.0,
          869.0,
          870.0,
          869.0,
          868.0,
          868.0,
          869.0,
          869.0,
          869.0,
          870.0,
          870.0,
          868.0,
          868.0,
          869.0,
          869.0,
          869.0,
          869.0,
          868.0,
          868.0,
          868.0,
          870.0,
          869.0,
          869.0,
          869.0,
          869.0,
          869.0,
          869.0,
          868.0,
          868.0,
          870.0,
          869.0,
          868.0,
          869.0,
          870.0,
          869.0,
          869.0,
          869.0,
          868.0,
          870.0,
          868.0,
          867.0,
          870.0,
          869.0,
          868.0,
          868.0,
          869.0,
          869.0,
          868.0,
          868.0,
          868.0,
          869.0,
          869.0,
          869.0,
          869.0,
          869.0,
          868.0,
          870.0,
          869.0,
          869.0,
          870.0,
          869.0,
          868.0,
          869.0,
          869.0,
          868.0,
          867.0,
          869.0,
          868.0,
          867.0,
          867.0,
          869.0,
          869.0
        ],
        "WindowWidth": [
          2014.0,
          2007.0,
          2009.0,
          2011.0,
          2006.0,
          2002.0,
          2010.0,
          2008.0,
          2006.0,
          2005.0,
          2005.0,
          2012.0,
          2008.0,
          1999.0,
          2001.0,
          2006.0,
          2007.0,
          2006.0,
          2009.0,
          2006.0,
          2002.0,
          2004.0,
          2006.0,
          2006.0,
          2002.0,
          2002.0,
          2007.0,
          2004.0,
          2006.0,
          2007.0,
          2004.0,
          2002.0,
          2005.0,
          2008.0,
          2002.0,
          2001.0,
          2009.0,
          2009.0,
          2006.0,
          2009.0,
          2013.0,
          2001.0,
          1998.0,
          2000.0,
          2006.0,
          2008.0,
          2005.0,
          2001.0,
          2001.0,
          2008.0,
          2007.0,
          2000.0,
          2007.0,
          2009.0,
          2000.0,
          2000.0,
          2009.0,
          2008.0,
          2001.0,
          2005.0,
          2006.0,
          2003.0,
          2002.0,
          2004.0,
          2006.0,
          2010.0,
          2006.0,
          2005.0,
          2007.0,
          2008.0,
          2003.0,
          2002.0,
          2006.0,
          2006.0,
          2003.0,
          2009.0,
          2013.0,
          2004.0,
          2001.0,
          2008.0,
          2009.0,
          2005.0,
          2002.0,
          2005.0,
          2007.0,
          2009.0,
          2009.0,
          2012.0,
          2010.0,
          2004.0,
          2005.0,
          2007.0,
          2006.0,
          2006.0,
          2006.0,
          2006.0,
          2005.0,
          2005.0,
          2010.0,
          2007.0,
          2007.0,
          2007.0,
          2006.0,
          2009.0,
          2007.0,
          2003.0,
          2005.0,
          2011.0,
          2007.0,
          2004.0,
          2006.0,
          2011.0,
          2008.0,
          2005.0,
          2006.0,
          2005.0,
          2011.0,
          2004.0,
          2003.0,
          2012.0,
          2008.0,
          2002.0,
          2004.0,
          2008.0,
          2007.0,
          2003.0,
          2003.0,
          2005.0,
          2008.0,
          2009.0,
          2009.0,
          2009.0,
          2007.0,
          2005.0,
          2011.0,
          2008.0,
          2006.0,
          2010.0,
          2008.0,
          2005.0,
          2008.0,
          2009.0,
          2003.0,
          2000.0,
          2007.0,
          2005.0,
          2002.0,
          2002.0,
          2007.0,
          2008.0
        ]
      },
      "slices": {}
    }
  },
  "dummy_trs": 0,
  "dvars_nstd": 74.03389422483227,
  "dvars_std": 1.0836158914765108,
  "dvars_vstd": 1.0194632291946315,
  "efc": 0.5533403001100584,
  "fber": 400.6560974121094,
  "fd_mean": 0.03457842216701084,
  "fd_num": 0,
  "fd_perc": 0.0,
  "fwhm_avg": 2.7644127631968014,
  "fwhm_x": 2.6696363874434237,
  "fwhm_y": 2.6419383304091606,
  "fwhm_z": 2.981663571737819,
  "gcor": 0.00211809,
  "gsr_x": -0.02185092866420746,
  "gsr_y": 0.07694178074598312,
  "provenance": {
    "md5sum": "00b5053b777e76775790336e0a3c1b00",
    "settings": {
      "fd_thres": 0.2,
      "testing": false
    },
    "software": "mriqc",
    "version": "22.0.6",
    "webapi_port": null,
    "webapi_url": "https://mriqc.nimh.nih.gov/api/v1"
  },
  "size_t": 150,
  "size_x": 188,
  "size_y": 188,
  "size_z": 46,
  "snr": 2.1011857326460124,
  "spacing_tr": 2.5999999046325684,
  "spacing_x": 1.0957447290420532,
  "spacing_y": 1.0957447290420532,
  "spacing_z": 1.100000023841858,
  "summary_bg_k": 42.637245489105446,
  "summary_bg_mad": 22.446599511105546,
  "summary_bg_mean": 86.7620620727539,
  "summary_bg_median": 46.96000289916992,
  "summary_bg_n": 1072496.0,
  "summary_bg_p05": 30.246667861938477,
