{
  "aor": 0.0006106666666666667,
  "aqi": 0.012100144666666666,
  "bids_meta": {
    "AcquisitionMatrixPE": 188,
    "AcquisitionNumber": 1,
    "AcquisitionTime": "17:59:28.007500",
    "BandwidthPerPixelPhaseEncode": 19.46,
    "BaseResolution": 188,
    "ConversionSoftware": "dcm2niix",
    "ConversionSoftwareVersion": "v1.0.20180606 GCC4.8.5",
    "DelayTime": 1.2,
    "DerivedVendorReportedEchoSpacing": 0.000820013,
    "DeviceSerialNumber": "18930",
    "DwellTime": 1.9e-06,
    "EchoTime": 0.02,
    "EffectiveEchoSpacing": 0.000273338,
    "FlipAngle": 80,
    "ImageComments": "Unaliased_MB2_PE2",
    "ImageOrientationPatientDICOM": [
      0.99917,
      0.0396396,
      -0.00933193,
      -0.0159716,
      0.170651,
      -0.985202
    ],
    "ImageType": [
      "ORIGINAL",
      "PRIMARY",
      "M",
      "MB",
      "ND",
      "MOSAIC"
    ],
    "InPlanePhaseEncodingDirectionDICOM": "COL",
    "InstitutionAddress": "Oxfordlaan_55_Maastricht_753AAF_Limburg_NL_6229_EV",
    "InstitutionName": "Scannexus",
    "InstitutionalDepartmentName": "MRI_7T",
    "MRAcquisitionType": "2D",
    "MagneticFieldStrength": 6.98,
    "Manufacturer": "Siemens",
    "ManufacturersModelName": "Investigational_Device_7T",
    "Modality": "MR",
    "MultibandAccelerationFactor": 2,
    "ParallelReductionFactorInPlane": 3,
    "PartialFourier": 0.75,
    "PatientPosition": "HFS",
    "PercentPhaseFOV": 100,
    "PhaseEncodingDirection": "j",
    "PhaseEncodingSteps": 141,
    "PhaseResolution": 1,
    "PixelBandwidth": 1400,
    "ProcedureStepDescription": "FeDem_Faruk",
    "ProtocolName": "cmrr_mbep2d_bold_AP_run6",
    "PulseSequenceDetails": "%CustomerSeq%_cmrr_mbep2d_bold",
    "ReceiveCoilName": "32Ch_Head_7T",
    "ReconMatrixPE": 188,
    "RepetitionTime": 2.6,
    "SAR": 0.0873253,
    "ScanOptions": "PFP_FS",
    "ScanningSequence": "EP",
    "SequenceName": "epfid2d1_188",
    "SequenceVariant": "SK_SS",
    "SeriesDescription": "cmrr_mbep2d_bold_AP_run6",
    "SeriesNumber": 17,
    "ShimSetting": [
      93,
      -33,
      463,
      631,
      -110,
      480,
      248,
      241
    ],
    "SliceThickness": 1.1,
    "SliceTiming": [
      0,
      0.7325,
      0.06,
      0.795,
      0.1225,
      0.855,
      0.1825,
      0.9175,
      0.245,
      0.9775,
      0.305,
      1.0375,
      0.3675,
      1.1,
      0.4275,
      1.16,
      0.4875,
      1.2225,
      0.55,
      1.2825,
      0.61,
      1.345,
      0.6725,
      0,
      0.7325,
      0.06,
      0.795,
      0.1225,
      0.855,
      0.1825,
      0.9175,
      0.245,
      0.9775,
      0.305,
      1.0375,
      0.3675,
      1.1,
      0.4275,
      1.16,
      0.4875,
      1.2225,
      0.55,
      1.2825,
      0.61,
      1.345,
      0.6725
    ],
    "SoftwareVersions": "syngo_MR_B17",
    "SpacingBetweenSlices": 1.1,
    "StationName": "MRC18930",
    "TaskName": "auditory",
    "TotalReadoutTime": 0.0511141,
    "TxRefAmp": 230,
    "dataset": "ds001942",
    "dcmmeta_affine": [
      [
        -1.0948357582092285,
        -0.017500832676887512,
        0.041206520050764084,
        103.71492004394531
      ],
      [
        -0.04343484342098236,
        0.18699046969413757,
        -1.0829871892929077,
        32.03782272338867
      ],
      [
        -0.01022541057318449,
        1.079529881477356,
        0.1882573366165161,
        -118.32125091552734
      ],
      [
        0.0,
        0.0,
        0.0,
        1.0
      ]
    ],
    "dcmmeta_reorient_transform": [
      [
        0.0,
        -1.0,
        0.0,
        187.0
      ],
      [
        1.0,
        0.0,
        0.0,
        0.0
      ],
      [
        0.0,
        0.0,
        1.0,
        0.0
      ],
      [
        0.0,
        0.0,
        0.0,
        1.0
      ]
    ],
    "dcmmeta_shape": [
      188,
      188,
      46,
      150
    ],
    "dcmmeta_slice_dim": 2,
    "dcmmeta_version": 0.6,
    "global": {
      "const": {
        "AcquisitionMatrix": [
          188,
          0,
          0,
          188
        ],
        "AngioFlag": "N",
        "BitsAllocated": 16,
        "BitsStored": 12,
        "Columns": 1316,
        "EchoNumbers": 1,
        "EchoTime": 20.0,
        "EchoTrainLength": 1,
        "FlipAngle": 80.0,
        "HighBit": 11,
        "ImageOrientationPatient": [
          0.99917046595386,
          0.03963956464482,
          -0.0093319280064,
          -0.0159716336989,
          0.17065148481829,
          -0.9852019983974
        ],
        "ImagePositionPatient": [
          -708.05917272675,
          -196.96491558702,
          698.17283448398
        ],
        "ImageType": [
          "ORIGINAL",
          "PRIMARY",
          "M",
          "MB",
          "ND",
          "MOSAIC"
        ],
        "ImagedNucleus": "1H",
        "ImagingFrequency": 297.205642,
        "InPlanePhaseEncodingDirection": "COL",
        "LargestImagePixelValue": 4095,
        "MRAcquisitionType": "2D",
        "MagneticFieldStrength": 6.98,
        "Manufacturer": "SIEMENS",
        "ManufacturerModelName": "Investigational_Device_7T",
        "Modality": "MR",
        "NumberOfAverages": 1.0,
        "NumberOfPhaseEncodingSteps": 141,
        "PercentPhaseFieldOfView": 100.0,
        "PercentSampling": 100.0,
        "PerformedProcedureStepStartTime": "165528.781000",
        "PhotometricInterpretation": "MONOCHROME2",
        "PixelBandwidth": 1400.0,
        "PixelRepresentation": 0,
        "PixelSpacing": [
          1.0957447290421,
          1.0957447290421
        ],
        "ProtocolName": "cmrr_mbep2d_bold_AP_run6",
        "RepetitionTime": 2600.0,
        "Rows": 1316,
        "SAR": 0.08732529069584,
        "SamplesPerPixel": 1,
        "ScanOptions": [
          "PFP",
          "FS"
        ],
        "ScanningSequence": "EP",
        "SequenceName": "epfid2d1_188",
        "SequenceVariant": [
          "SK",
          "SS"
        ],
        "SeriesDescription": "cmrr_mbep2d_bold_AP_run6",
        "SeriesNumber": 17,
        "SeriesTime": "175937.453000",
        "SliceLocation": -47.906968081104,
        "SliceThickness": 1.1000000238419,
        "SmallestImagePixelValue": 0,
        "SoftwareVersions": "syngo MR B17",
        "SpacingBetweenSlices": 1.100000010056,
        "SpecificCharacterSet": "ISO_IR 100",
        "StudyID": "1",
        "StudyTime": "165528.750000",
        "TransmitCoilName": "32Ch_Head_7T",
        "VariableFlipAngleFlag": "N",
        "WindowCenterWidthExplanation": "Algo1",
        "dBdt": 0.0
      },
      "slices": {}
    },
    "modality": "bold",
    "run_id": 6,
    "session_id": "SES03",
    "subject_id": "S09",
    "task_id": "auditory",
    "time": {
      "samples": {
        "AcquisitionNumber": [
          1,
          2,
          3,
          4,
          5,
          6,
          7,
          8,
          9,
          10,
          11,
          12,
          13,
          14,
          15,
          16,
          17,
          18,
          19,
          20,
          21,
          22,
          23,
          24,
          25,
          26,
          27,
          28,
          29,
          30,
          31,
          32,
          33,
          34,
          35,
          36,
          37,
          38,
          39,
          40,
          41,
          42,
          43,
          44,
          45,
          46,
          47,
          48,
          49,
          50,
          51,
          52,
          53,
          54,
          55,
          56,
          57,
          58,
          59,
          60,
          61,
          62,
          63,
          64,
          65,
          66,
          67,
          68,
          69,
          70,
          71,
          72,
          73,
          74,
          75,
          76,
          77,
          78,
          79,
          80,
          81,
          82,
          83,
          84,
          85,
          86,
          87,
          88,
          89,
          90,
          91,
          92,
          93,
          94,
          95,
          96,
          97,
          98,
          99,
          100,
          101,
          102,
          103,
          104,
          105,
          106,
          107,
          108,
          109,
          110,
          111,
          112,
          113,
          114,
          115,
          116,
          117,
          118,
          119,
          120,
          121,
          122,
          123,
          124,
          125,
          126,
          127,
          128,
          129,
          130,
          131,
          132,
          133,
          134,
          135,
          136,
          137,
          138,
          139,
          140,
          141,
          142,
          143,
          144,
          145,
          146,
          147,
          148,
          149,
          150
        ],
        "AcquisitionTime": [
          "175928.007500",
          "175930.617500",
          "175933.227500",
          "175935.837500",
          "175938.450000",
          "175941.060000",
          "175943.670000",
          "175946.280000",
          "175948.890000",
          "175951.500000",
          "175954.112500",
          "175956.722500",
          "175959.332500",
          "180001.942500",
          "180004.552500",
          "180007.165000",
          "180009.775000",
          "180012.385000",
          "180014.995000",
          "180017.605000",
          "180020.215000",
          "180022.827500",
          "180025.437500",
          "180028.047500",
          "180030.657500",
          "180033.267500",
          "180035.877500",
          "180038.490000",
          "180041.100000",
          "180043.710000",
          "180046.320000",
          "180048.930000",
          "180051.542500",
          "180054.152500",
          "180056.762500",
          "180059.372500",
          "180101.982500",
          "180104.592500",
          "180107.205000",
          "180109.815000",
          "180112.425000",
          "180115.035000",
          "180117.645000",
          "180120.255000",
          "180122.867500",
          "180125.477500",
          "180128.087500",
          "180130.697500",
          "180133.307500",
          "180135.920000",
          "180138.530000",
          "180141.140000",
          "180143.750000",
          "180146.360000",
          "180148.970000",
          "180151.582500",
          "180154.192500",
          "180156.802500",
          "180159.412500",
          "180202.022500",
          "180204.632500",
          "180207.245000",
          "180209.855000",
          "180212.465000",
          "180215.075000",
          "180217.685000",
          "180220.297500",
          "180222.907500",
          "180225.517500",
          "180228.127500",
          "180230.737500",
          "180233.347500",
          "180235.960000",
          "180238.570000",
          "180241.180000",
          "180243.790000",
          "180246.400000",
          "180249.010000",
          "180251.622500",
          "180254.232500",
          "180256.842500",
          "180259.452500",
          "180302.062500",
          "180304.675000",
          "180307.285000",
          "180309.895000",
          "180312.505000",
          "180315.115000",
          "180317.725000",
          "180320.337500",
          "180322.947500",
          "180325.557500",
          "180328.167500",
          "180330.777500",
          "180333.387500",
          "180336.000000",
          "180338.610000",
          "180341.220000",
          "180343.830000",
          "180346.440000",
          "180349.052500",
          "180351.662500",
          "180354.272500",
          "180356.882500",
          "180359.492500",
          "180402.102500",
          "180404.715000",
          "180407.325000",
          "180409.935000",
          "180412.545000",
          "180415.155000",
          "180417.765000",
          "180420.377500",
          "180422.987500",
          "180425.597500",
          "180428.207500",
          "180430.817500",
          "180433.430000",
          "180436.040000",
          "180438.650000",
          "180441.260000",
          "180443.870000",
          "180446.480000",
          "180449.092500",
          "180451.702500",
          "180454.312500",
          "180456.922500",
          "180459.532500",
          "180502.142500",
          "180504.755000",
          "180507.365000",
          "180509.975000",
          "180512.585000",
          "180515.195000",
          "180517.807500",
          "180520.417500",
          "180523.027500",
          "180525.637500",
          "180528.247500",
          "180530.857500",
          "180533.470000",
          "180536.080000",
          "180538.690000",
          "180541.300000",
          "180543.910000",
          "180546.522500",
          "180549.132500",
          "180551.742500",
          "180554.352500",
          "180556.962500"
        ],
        "ContentTime": [
          "175937.468000",
          "175937.468000",
          "175937.953000",
          "175940.453000",
          "175943.453000",
          "175945.953000",
          "175948.453000",
          "175950.953000",
          "175953.453000",
          "175956.453000",
          "175958.953000",
          "180001.453000",
          "180003.953000",
          "180006.453000",
          "180009.453000",
          "180011.953000",
          "180014.453000",
          "180016.953000",
          "180019.453000",
          "180022.453000",
          "180024.953000",
          "180027.453000",
          "180029.953000",
          "180032.968000",
          "180035.453000",
          "180037.953000",
          "180040.453000",
          "180042.953000",
          "180045.453000",
          "180048.453000",
          "180050.953000",
          "180053.453000",
          "180055.953000",
          "180058.453000",
          "180101.453000",
          "180103.953000",
          "180106.453000",
          "180108.953000",
          "180111.453000",
          "180114.453000",
          "180116.953000",
          "180119.453000",
          "180121.953000",
          "180124.453000",
          "180127.453000",
          "180129.953000",
          "180132.453000",
          "180134.953000",
          "180137.453000",
          "180140.453000",
          "180142.953000",
          "180145.453000",
          "180147.953000",
          "180150.453000",
          "180153.453000",
          "180155.953000",
          "180158.453000",
          "180200.953000",
          "180203.953000",
          "180206.453000",
          "180208.953000",
          "180211.453000",
          "180213.953000",
          "180216.453000",
          "180219.453000",
          "180221.953000",
          "180224.453000",
          "180226.953000",
          "180229.453000",
          "180232.453000",
          "180234.953000",
          "180237.453000",
          "180239.953000",
          "180242.453000",
          "180245.453000",
          "180247.953000",
          "180250.453000",
          "180252.953000",
          "180255.453000",
          "180258.453000",
          "180300.953000",
          "180303.453000",
          "180305.953000",
          "180308.953000",
          "180311.453000",
          "180313.953000",
          "180316.453000",
          "180318.953000",
          "180321.453000",
          "180324.453000",
          "180326.953000",
          "180329.453000",
          "180331.953000",
          "180334.453000",
          "180337.453000",
          "180339.953000",
          "180342.453000",
          "180344.953000",
          "180347.953000",
          "180350.453000",
          "180352.953000",
          "180355.453000",
          "180357.953000",
          "180400.953000",
          "180403.453000",
          "180405.953000",
          "180408.453000",
          "180410.953000",
          "180413.453000",
          "180416.453000",
          "180418.953000",
          "180421.453000",
          "180423.953000",
          "180426.953000",
          "180429.453000",
          "180431.953000",
          "180434.453000",
          "180436.953000",
          "180439.953000",
          "180442.453000",
          "180444.953000",
          "180447.453000",
          "180449.953000",
          "180452.453000",
          "180455.453000",
          "180457.953000",
          "180500.453000",
          "180502.953000",
          "180505.453000",
          "180508.453000",
          "180510.953000",
          "180513.453000",
          "180515.953000",
          "180518.453000",
          "180521.453000",
          "180523.953000",
          "180526.453000",
          "180528.953000",
          "180531.453000",
          "180534.453000",
          "180536.953000",
          "180539.453000",
          "180541.953000",
          "180544.453000",
          "180547.453000",
          "180549.953000",
          "180552.453000",
          "180554.953000",
          "180557.453000",
          "180605.031000"
        ],
        "InstanceCreationTime": [
          "175937.468000",
          "175937.468000",
          "175937.953000",
          "175940.453000",
          "175943.453000",
          "175945.953000",
          "175948.453000",
          "175950.953000",
          "175953.453000",
          "175956.453000",
          "175958.953000",
          "180001.453000",
          "180003.953000",
          "180006.453000",
          "180009.453000",
          "180011.953000",
          "180014.453000",
          "180016.953000",
          "180019.453000",
          "180022.453000",
          "180024.953000",
          "180027.453000",
          "180029.953000",
          "180032.968000",
          "180035.453000",
          "180037.953000",
          "180040.453000",
          "180042.953000",
          "180045.453000",
          "180048.453000",
          "180050.953000",
          "180053.453000",
          "180055.953000",
          "180058.453000",
          "180101.453000",
          "180103.953000",
          "180106.453000",
          "180108.953000",
          "180111.453000",
          "180114.453000",
          "180116.953000",
          "180119.453000",
          "180121.953000",
          "180124.453000",
          "180127.453000",
          "180129.953000",
          "180132.453000",
          "180134.953000",
          "180137.453000",
          "180140.453000",
          "180142.953000",
          "180145.453000",
          "180147.953000",
          "180150.453000",
          "180153.453000",
          "180155.953000",
          "180158.453000",
          "180200.953000",
          "180203.953000",
          "180206.453000",
          "180208.953000",
          "180211.453000",
          "180213.953000",
          "180216.453000",
          "180219.453000",
          "180221.953000",
          "180224.453000",
          "180226.953000",
          "180229.453000",
          "180232.453000",
          "180234.953000",
          "180237.453000",
          "180239.953000",
          "180242.453000",
          "180245.453000",
          "180247.953000",
          "180250.453000",
          "180252.953000",
          "180255.453000",
          "180258.453000",
          "180300.953000",
          "180303.453000",
          "180305.953000",
          "180308.953000",
          "180311.453000",
          "180313.953000",
          "180316.453000",
          "180318.953000",
          "180321.453000",
          "180324.453000",
          "180326.953000",
          "180329.453000",
          "180331.953000",
          "180334.453000",
          "180337.453000",
          "180339.953000",
          "180342.453000",
          "180344.953000",
          "180347.953000",
          "180350.453000",
          "180352.953000",
          "180355.453000",
          "180357.953000",
          "180400.953000",
          "180403.453000",
          "180405.953000",
          "180408.453000",
          "180410.953000",
          "180413.453000",
          "180416.453000",
          "180418.953000",
          "180421.453000",
          "180423.953000",
          "180426.953000",
          "180429.453000",
          "180431.953000",
          "180434.453000",
          "180436.953000",
          "180439.953000",
          "180442.453000",
          "180444.953000",
          "180447.453000",
          "180449.953000",
          "180452.453000",
          "180455.453000",
          "180457.953000",
          "180500.453000",
          "180502.953000",
          "180505.453000",
          "180508.453000",
          "180510.953000",
          "180513.453000",
          "180515.953000",
          "180518.453000",
          "180521.453000",
          "180523.953000",
          "180526.453000",
          "180528.953000",
          "180531.453000",
          "180534.453000",
          "180536.953000",
          "180539.453000",
          "180541.953000",
          "180544.453000",
          "180547.453000",
          "180549.953000",
          "180552.453000",
          "180554.953000",
          "180557.453000",
          "180605.031000"
        ],
        "InstanceNumber": [
          1,
          2,
          3,
          4,
          5,
          6,
          7,
          8,
          9,
          10,
          11,
          12,
          13,
          14,
          15,
          16,
          17,
          18,
          19,
          20,
          21,
          22,
          23,
          24,
          25,
          26,
          27,
          28,
          29,
          30,
          31,
          32,
          33,
          34,
          35,
          36,
          37,
          38,
          39,
          40,
          41,
          42,
          43,
          44,
          45,
          46,
          47,
          48,
          49,
          50,
          51,
          52,
          53,
          54,
          55,
          56,
          57,
          58,
          59,
          60,
          61,
          62,
          63,
          64,
          65,
          66,
          67,
          68,
          69,
          70,
          71,
          72,
          73,
          74,
          75,
          76,
          77,
          78,
          79,
          80,
          81,
          82,
          83,
          84,
          85,
          86,
          87,
          88,
          89,
          90,
          91,
          92,
          93,
          94,
          95,
          96,
          97,
          98,
          99,
          100,
          101,
          102,
          103,
          104,
          105,
          106,
          107,
          108,
          109,
          110,
          111,
          112,
          113,
          114,
          115,
          116,
          117,
          118,
          119,
          120,
          121,
          122,
          123,
          124,
          125,
          126,
          127,
          128,
          129,
          130,
          131,
          132,
          133,
          134,
          135,
          136,
          137,
          138,
          139,
          140,
          141,
          142,
          143,
          144,
          145,
          146,
          147,
          148,
          149,
          150
        ],
        "WindowCenter": [
          867.0,
          865.0,
          864.0,
          864.0,
          864.0,
          864.0,
          864.0,
          864.0,
          864.0,
          863.0,
          864.0,
          864.0,
          863.0,
          862.0,
          864.0,
          865.0,
          866.0,
          864.0,
          863.0,
          865.0,
          865.0,
          863.0,
          862.0,
          864.0,
          865.0,
          864.0,
          863.0,
          864.0,
          864.0,
          864.0,
          864.0,
          864.0,
          864.0,
          864.0,
          864.0,
          866.0,
          865.0,
          864.0,
          865.0,
          865.0,
          864.0,
          864.0,
          864.0,
          864.0,
          864.0,
          864.0,
          863.0,
          862.0,
          863.0,
          866.0,
          865.0,
          863.0,
          863.0,
          864.0,
          864.0,
          864.0,
          863.0,
          864.0,
          865.0,
          865.0,
          864.0,
          864.0,
          865.0,
          865.0,
          865.0,
          864.0,
          864.0,
          865.0,
          865.0,
          864.0,
          864.0,
          866.0,
          865.0,
          864.0,
          865.0,
          866.0,
          864.0,
          864.0,
          864.0,
          866.0,
          865.0,
          864.0,
          864.0,
          864.0,
          863.0,
          865.0,
          866.0,
          864.0,
          864.0,
          865.0,
          865.0,
          865.0,
          866.0,
          865.0,
          865.0,
          866.0,
          865.0,
          864.0,
          864.0,
          865.0,
          865.0,
          865.0,
          865.0,
          865.0,
          864.0,
          863.0,
          864.0,
          864.0,
          865.0,
          865.0,
          863.0,
          863.0,
          865.0,
          865.0,
          864.0,
          863.0,
          864.0,
          864.0,
          864.0,
          865.0,
          866.0,
          864.0,
          863.0,
          864.0,
          865.0,
          864.0,
          864.0,
          863.0,
          863.0,
          863.0,
          865.0,
          864.0,
          863.0,
          864.0,
          865.0,
          864.0,
          864.0,
          864.0,
          863.0,
          863.0,
          865.0,
          864.0,
          863.0,
          863.0,
          865.0,
          864.0,
          863.0,
          863.0,
          864.0,
          865.0
        ],
        "WindowWidth": [
          2003.0,
          1995.0,
          1994.0,
          1994.0,
          1994.0,
          1995.0,
          1993.0,
          1995.0,
          1993.0,
          1992.0,
          1994.0,
          1993.0,
          1990.0,
          1988.0,
          1993.0,
          1997.0,
          2000.0,
          1992.0,
          1989.0,
          1997.0,
          1996.0,
          1989.0,
          1987.0,
          1993.0,
          1997.0,
          1992.0,
          1991.0,
          1994.0,
          1993.0,
          1992.0,
          1995.0,
          1994.0,
          1995.0,
          1995.0,
          1993.0,
          2000.0,
          1996.0,
          1992.0,
          1998.0,
          1997.0,
          1994.0,
          1994.0,
          1994.0,
          1994.0,
          1993.0,
          1994.0,
          1992.0,
          1988.0,
          1993.0,
          2001.0,
          1998.0,
          1990.0,
          1990.0,
          1993.0,
          1994.0,
          1992.0,
          1990.0,
          1994.0,
          1996.0,
          1995.0,
          1995.0,
          1994.0,
          1998.0,
          1998.0,
          1995.0,
          1993.0,
          1993.0,
          1995.0,
          1995.0,
          1994.0,
          1993.0,
          1999.0,
          1997.0,
          1994.0,
          1997.0,
          1999.0,
          1993.0,
          1991.0,
          1994.0,
          1998.0,
          1996.0,
          1993.0,
          1994.0,
          1992.0,
          1989.0,
          1996.0,
          1998.0,
          1993.0,
          1991.0,
          1996.0,
          1996.0,
          1998.0,
          2000.0,
          1995.0,
          1995.0,
          2000.0,
          1997.0,
          1992.0,
          1995.0,
          1998.0,
          1996.0,
          1994.0,
          1996.0,
          1997.0,
          1992.0,
          1990.0,
          1992.0,
          1993.0,
          1995.0,
          1995.0,
          1990.0,
          1991.0,
          1995.0,
          1997.0,
          1992.0,
          1990.0,
          1992.0,
          1992.0,
          1993.0,
          1996.0,
          1999.0,
          1992.0,
          1989.0,
          1994.0,
          1998.0,
          1992.0,
          1992.0,
          1990.0,
          1990.0,
          1991.0,
          1996.0,
          1993.0,
          1991.0,
          1993.0,
          1995.0,
          1992.0,
          1995.0,
          1992.0,
          1989.0,
          1991.0,
          1997.0,
          1993.0,
          1989.0,
          1991.0,
          1996.0,
          1993.0,
          1990.0,
          1990.0,
          1994.0,
          1995.0
        ]
      },
      "slices": {}
    }
  },
  "dummy_trs": 0,
  "dvars_nstd": 73.46661402523486,
  "dvars_std": 1.0817605641610735,
  "dvars_vstd": 1.019075043288591,
  "efc": 0.5520959508706909,
  "fber": 411.5218200683594,
  "fd_mean": 0.033964355238330655,
  "fd_num": 0,
  "fd_perc": 0.0,
  "fwhm_avg": 2.74214637382517,
  "fwhm_x": 2.651922407639962,
  "fwhm_y": 2.6246167777729066,
  "fwhm_z": 2.9498999360626406,
  "gcor": 0.00179425,
  "gsr_x": -0.020564453676342964,
  "gsr_y": 0.07409556955099106,
  "provenance": {
    "md5sum": "45da23e9c3277216e85490a75bc0c341",
    "settings": {
      "fd_thres": 0.2,
      "testing": false
    },
    "software": "mriqc",
    "version": "23.0.1",
    "webapi_port": null,
    "webapi_url": "https://mriqc.nimh.nih.gov/api/v1"
  },
  "size_t": 150,
  "size_x": 188,
  "size_y": 188,
  "size_z": 46,
  "snr": 2.128698978893947,
  "spacing_tr": 2.5999999046325684,
  "spacing_x": 1.0957447290420532,
  "spacing_y": 1.0957447290420532,
  "spacing_z": 1.100000023841858,
  "summary_bg_k": 43.61735250948242,
  "summary_bg_mad": 21.8337897646237,
  "summary_bg_mean": 84.47420501708984,
  "summary_bg_median": 46.220001220703125,
  "summary_bg_n": 1073669.0,
  "summary_bg_p05": 29.926668167114258,
  "summary_bg_p95": 259.6066589355469,
