{
  "aor": 0.0006766666666666667,
  "aqi": 0.013085334,
  "bids_meta": {
    "AcquisitionMatrixPE": 188,
    "AcquisitionNumber": 1,
    "AcquisitionTime": "17:36:32.070000",
    "BandwidthPerPixelPhaseEncode": 19.46,
    "BaseResolution": 188,
    "CogAtlasID": "TODO",
    "ConversionSoftware": "dcm2niix",
    "ConversionSoftwareVersion": "v1.0.20180606 GCC4.8.5",
    "DelayTime": 1.2,
    "DerivedVendorReportedEchoSpacing": 0.000820013,
    "DeviceSerialNumber": "18930",
    "DwellTime": 1.9e-06,
    "EchoTime": 0.02,
    "EffectiveEchoSpacing": 0.000273338,
    "FlipAngle": 80,
    "ImageComments": "Unaliased_MB2_PE2",
    "ImageOrientationPatientDICOM": [
      0.99917,
      0.0396396,
      -0.00933193,
      -0.0159716,
      0.170651,
      -0.985202
    ],
    "ImageType": [
      "ORIGINAL",
      "PRIMARY",
      "M",
      "MB",
      "ND",
      "MOSAIC"
    ],
    "InPlanePhaseEncodingDirectionDICOM": "COL",
    "InstitutionAddress": "Oxfordlaan_55_Maastricht_753AAF_Limburg_NL_6229_EV",
    "InstitutionName": "Scannexus",
    "InstitutionalDepartmentName": "MRI_7T",
    "MRAcquisitionType": "2D",
    "MagneticFieldStrength": 6.98,
    "Manufacturer": "Siemens",
    "ManufacturersModelName": "Investigational_Device_7T",
    "Modality": "MR",
    "MultibandAccelerationFactor": 2,
    "ParallelReductionFactorInPlane": 3,
    "PartialFourier": 0.75,
    "PatientPosition": "HFS",
    "PercentPhaseFOV": 100,
    "PhaseEncodingDirection": "j",
    "PhaseEncodingSteps": 141,
    "PhaseResolution": 1,
    "PixelBandwidth": 1400,
    "ProcedureStepDescription": "FeDem_Faruk",
    "ProtocolName": "cmrr_mbep2d_bold_AP_run3",
    "PulseSequenceDetails": "%CustomerSeq%_cmrr_mbep2d_bold",
    "ReceiveCoilName": "32Ch_Head_7T",
    "ReconMatrixPE": 188,
    "RepetitionTime": 2.6,
    "SAR": 0.0876294,
    "ScanOptions": "PFP_FS",
    "ScanningSequence": "EP",
    "SequenceName": "epfid2d1_188",
    "SequenceVariant": "SK_SS",
    "SeriesDescription": "cmrr_mbep2d_bold_AP_run3",
    "SeriesNumber": 14,
    "ShimSetting": [
      93,
      -33,
      463,
      631,
      -110,
      480,
      248,
      241
    ],
    "SliceThickness": 1.1,
    "SliceTiming": [
      0,
      0.7325,
      0.0625,
      0.795,
      0.1225,
      0.855,
      0.1825,
      0.9175,
      0.245,
      0.9775,
      0.305,
      1.04,
      0.3675,
      1.1,
      0.4275,
      1.1625,
      0.49,
      1.2225,
      0.55,
      1.2825,
      0.6125,
      1.345,
      0.6725,
      0,
      0.7325,
      0.0625,
      0.795,
      0.1225,
      0.855,
      0.1825,
      0.9175,
      0.245,
      0.9775,
      0.305,
      1.04,
      0.3675,
      1.1,
      0.4275,
      1.1625,
      0.49,
      1.2225,
      0.55,
      1.2825,
      0.6125,
      1.345,
      0.6725
    ],
    "SoftwareVersions": "syngo_MR_B17",
    "SpacingBetweenSlices": 1.1,
    "StationName": "MRC18930",
    "TaskName": "auditory",
    "TotalReadoutTime": 0.0511141,
    "TxRefAmp": 230,
    "dataset": "ds001942",
    "dcmmeta_affine": [
      [
        -1.0948357582092285,
        -0.017500832676887512,
        0.041206520050764084,
        103.71492004394531
      ],
      [
        -0.04343484342098236,
        0.18699046969413757,
        -1.0829871892929077,
        32.03782272338867
      ],
      [
        -0.01022541057318449,
        1.079529881477356,
        0.1882573366165161,
        -118.32125091552734
      ],
      [
        0.0,
        0.0,
        0.0,
        1.0
      ]
    ],
    "dcmmeta_reorient_transform": [
      [
        0.0,
        -1.0,
        0.0,
        187.0
      ],
      [
        1.0,
        0.0,
        0.0,
        0.0
      ],
      [
        0.0,
        0.0,
        1.0,
        0.0
      ],
      [
        0.0,
        0.0,
        0.0,
        1.0
      ]
    ],
    "dcmmeta_shape": [
      188,
      188,
      46,
      150
    ],
    "dcmmeta_slice_dim": 2,
    "dcmmeta_version": 0.6,
    "global": {
      "const": {
        "AcquisitionMatrix": [
          188,
          0,
          0,
          188
        ],
        "AngioFlag": "N",
        "BitsAllocated": 16,
        "BitsStored": 12,
        "Columns": 1316,
        "EchoNumbers": 1,
        "EchoTime": 20.0,
        "EchoTrainLength": 1,
        "FlipAngle": 80.0,
        "HighBit": 11,
        "ImageOrientationPatient": [
          0.99917046595386,
          0.03963956464482,
          -0.0093319280064,
          -0.0159716336989,
          0.17065148481829,
          -0.9852019983974
        ],
        "ImagePositionPatient": [
          -708.05917272675,
          -196.96491558702,
          698.17283448398
        ],
        "ImageType": [
          "ORIGINAL",
          "PRIMARY",
          "M",
          "MB",
          "ND",
          "MOSAIC"
        ],
        "ImagedNucleus": "1H",
        "ImagingFrequency": 297.20563,
        "InPlanePhaseEncodingDirection": "COL",
        "LargestImagePixelValue": 4095,
        "MRAcquisitionType": "2D",
        "MagneticFieldStrength": 6.98,
        "Manufacturer": "SIEMENS",
        "ManufacturerModelName": "Investigational_Device_7T",
        "Modality": "MR",
        "NumberOfAverages": 1.0,
        "NumberOfPhaseEncodingSteps": 141,
        "PercentPhaseFieldOfView": 100.0,
        "PercentSampling": 100.0,
        "PerformedProcedureStepStartTime": "165528.781000",
        "PhotometricInterpretation": "MONOCHROME2",
        "PixelBandwidth": 1400.0,
        "PixelRepresentation": 0,
        "PixelSpacing": [
          1.0957447290421,
          1.0957447290421
        ],
        "ProtocolName": "cmrr_mbep2d_bold_AP_run3",
        "RepetitionTime": 2600.0,
        "Rows": 1316,
        "SAR": 0.0876294429637,
        "SamplesPerPixel": 1,
        "ScanOptions": [
          "PFP",
          "FS"
        ],
        "ScanningSequence": "EP",
        "SequenceName": "epfid2d1_188",
        "SequenceVariant": [
          "SK",
          "SS"
        ],
        "SeriesDescription": "cmrr_mbep2d_bold_AP_run3",
        "SeriesNumber": 14,
        "SeriesTime": "173641.109000",
        "SliceLocation": -47.906968081104,
        "SliceThickness": 1.1000000238419,
        "SmallestImagePixelValue": 0,
        "SoftwareVersions": "syngo MR B17",
        "SpacingBetweenSlices": 1.100000010056,
        "SpecificCharacterSet": "ISO_IR 100",
        "StudyID": "1",
        "StudyTime": "165528.750000",
        "TransmitCoilName": "32Ch_Head_7T",
        "VariableFlipAngleFlag": "N",
        "WindowCenterWidthExplanation": "Algo1",
        "dBdt": 0.0
      },
      "slices": {}
    },
    "modality": "bold",
    "run_id": 3,
    "session_id": "SES03",
    "subject_id": "S09",
    "task_id": "auditory",
    "time": {
      "samples": {
        "AcquisitionNumber": [
          1,
          2,
          3,
          4,
          5,
          6,
          7,
          8,
          9,
          10,
          11,
          12,
          13,
          14,
          15,
          16,
          17,
          18,
          19,
          20,
          21,
          22,
          23,
          24,
          25,
          26,
          27,
          28,
          29,
          30,
          31,
          32,
          33,
          34,
          35,
          36,
          37,
          38,
          39,
          40,
          41,
          42,
          43,
          44,
          45,
          46,
          47,
          48,
          49,
          50,
          51,
          52,
          53,
          54,
          55,
          56,
          57,
          58,
          59,
          60,
          61,
          62,
          63,
          64,
          65,
          66,
          67,
          68,
          69,
          70,
          71,
          72,
          73,
          74,
          75,
          76,
          77,
          78,
          79,
          80,
          81,
          82,
          83,
          84,
          85,
          86,
          87,
          88,
          89,
          90,
          91,
          92,
          93,
          94,
          95,
          96,
          97,
          98,
          99,
          100,
          101,
          102,
          103,
          104,
          105,
          106,
          107,
          108,
          109,
          110,
          111,
          112,
          113,
          114,
          115,
          116,
          117,
          118,
          119,
          120,
          121,
          122,
          123,
          124,
          125,
          126,
          127,
          128,
          129,
          130,
          131,
          132,
          133,
          134,
          135,
          136,
          137,
          138,
          139,
          140,
          141,
          142,
          143,
          144,
          145,
          146,
          147,
          148,
          149,
          150
        ],
        "AcquisitionTime": [
          "173632.070000",
          "173634.680000",
          "173637.292500",
          "173639.902500",
          "173642.512500",
          "173645.122500",
          "173647.732500",
          "173650.342500",
          "173652.955000",
          "173655.565000",
          "173658.175000",
          "173700.785000",
          "173703.395000",
          "173706.005000",
          "173708.617500",
          "173711.227500",
          "173713.837500",
          "173716.447500",
          "173719.057500",
          "173721.670000",
          "173724.280000",
          "173726.890000",
          "173729.500000",
          "173732.110000",
          "173734.720000",
          "173737.332500",
          "173739.942500",
          "173742.552500",
          "173745.162500",
          "173747.772500",
          "173750.382500",
          "173752.995000",
          "173755.605000",
          "173758.215000",
          "173800.825000",
          "173803.435000",
          "173806.047500",
          "173808.657500",
          "173811.267500",
          "173813.877500",
          "173816.487500",
          "173819.097500",
          "173821.710000",
          "173824.320000",
          "173826.930000",
          "173829.540000",
          "173832.150000",
          "173834.760000",
          "173837.372500",
          "173839.982500",
          "173842.592500",
          "173845.202500",
          "173847.812500",
          "173850.425000",
          "173853.035000",
          "173855.645000",
          "173858.255000",
          "173900.865000",
          "173903.475000",
          "173906.087500",
          "173908.697500",
          "173911.307500",
          "173913.917500",
          "173916.527500",
          "173919.137500",
          "173921.750000",
          "173924.360000",
          "173926.970000",
          "173929.580000",
          "173932.190000",
          "173934.802500",
          "173937.412500",
          "173940.022500",
          "173942.632500",
          "173945.242500",
          "173947.852500",
          "173950.465000",
          "173953.075000",
          "173955.685000",
          "173958.295000",
          "174000.905000",
          "174003.515000",
          "174006.127500",
          "174008.737500",
          "174011.347500",
          "174013.957500",
          "174016.567500",
          "174019.180000",
          "174021.790000",
          "174024.400000",
          "174027.010000",
          "174029.620000",
          "174032.230000",
          "174034.842500",
          "174037.452500",
          "174040.062500",
          "174042.672500",
          "174045.282500",
          "174047.892500",
          "174050.505000",
          "174053.115000",
          "174055.725000",
          "174058.335000",
          "174100.945000",
          "174103.557500",
          "174106.167500",
          "174108.777500",
          "174111.387500",
          "174113.997500",
          "174116.607500",
          "174119.220000",
          "174121.830000",
          "174124.440000",
          "174127.050000",
          "174129.660000",
          "174132.270000",
          "174134.882500",
          "174137.492500",
          "174140.102500",
          "174142.712500",
          "174145.322500",
          "174147.935000",
          "174150.545000",
          "174153.155000",
          "174155.765000",
          "174158.375000",
          "174200.985000",
          "174203.597500",
          "174206.207500",
          "174208.817500",
          "174211.427500",
          "174214.037500",
          "174216.647500",
          "174219.260000",
          "174221.870000",
          "174224.480000",
          "174227.090000",
          "174229.700000",
          "174232.312500",
          "174234.922500",
          "174237.532500",
          "174240.142500",
          "174242.752500",
          "174245.362500",
          "174247.975000",
          "174250.585000",
          "174253.195000",
          "174255.805000",
          "174258.415000",
          "174301.025000"
        ],
        "ContentTime": [
          "173641.125000",
          "173641.593000",
          "173642.093000",
          "173644.593000",
          "173647.093000",
          "173649.593000",
          "173652.093000",
          "173655.093000",
          "173657.593000",
          "173700.093000",
          "173702.593000",
          "173705.093000",
          "173708.093000",
          "173710.593000",
          "173713.093000",
          "173715.593000",
          "173718.093000",
          "173721.093000",
          "173723.593000",
          "173726.093000",
          "173728.593000",
          "173731.093000",
          "173734.093000",
          "173736.593000",
          "173739.093000",
          "173741.593000",
          "173744.093000",
          "173747.093000",
          "173749.593000",
          "173752.093000",
          "173754.593000",
          "173757.093000",
          "173800.093000",
          "173802.593000",
          "173805.093000",
          "173807.593000",
          "173810.093000",
          "173813.093000",
          "173815.593000",
          "173818.093000",
          "173820.593000",
          "173823.093000",
          "173826.093000",
          "173828.593000",
          "173831.093000",
          "173833.593000",
          "173836.093000",
          "173839.093000",
          "173841.593000",
          "173844.093000",
          "173846.593000",
          "173849.093000",
          "173852.093000",
          "173854.593000",
          "173857.093000",
          "173859.593000",
          "173902.093000",
          "173904.593000",
          "173907.593000",
          "173910.093000",
          "173912.593000",
          "173915.093000",
          "173918.093000",
          "173920.593000",
          "173923.093000",
          "173925.593000",
          "173928.093000",
          "173931.093000",
          "173933.593000",
          "173936.093000",
          "173938.593000",
          "173941.093000",
          "173944.093000",
          "173946.593000",
          "173949.093000",
          "173951.593000",
          "173954.093000",
          "173957.093000",
          "173959.593000",
          "174002.093000",
          "174004.593000",
          "174007.093000",
          "174010.093000",
          "174012.593000",
          "174015.093000",
          "174017.593000",
          "174020.093000",
          "174023.093000",
          "174025.593000",
          "174028.093000",
          "174030.593000",
          "174033.093000",
          "174036.093000",
          "174038.593000",
          "174041.093000",
          "174043.593000",
          "174046.093000",
          "174049.093000",
          "174051.593000",
          "174054.093000",
          "174056.593000",
          "174059.093000",
          "174102.093000",
          "174104.593000",
          "174107.093000",
          "174109.593000",
          "174112.093000",
          "174115.093000",
          "174117.593000",
          "174120.093000",
          "174122.593000",
          "174125.093000",
          "174128.093000",
          "174130.593000",
          "174133.093000",
          "174135.593000",
          "174138.093000",
          "174140.593000",
          "174143.593000",
          "174146.093000",
          "174148.593000",
          "174151.093000",
          "174154.093000",
          "174156.593000",
          "174159.093000",
          "174201.593000",
          "174204.093000",
          "174207.093000",
          "174209.593000",
          "174212.093000",
          "174214.593000",
          "174217.093000",
          "174220.093000",
          "174222.593000",
          "174225.093000",
          "174227.593000",
          "174230.093000",
          "174232.593000",
          "174235.593000",
          "174238.093000",
          "174240.593000",
          "174243.093000",
          "174246.093000",
          "174248.593000",
          "174251.093000",
          "174253.593000",
          "174256.093000",
          "174259.093000",
          "174301.593000",
          "174308.796000"
        ],
        "InstanceCreationTime": [
          "173641.125000",
          "173641.593000",
          "173642.093000",
          "173644.593000",
          "173647.093000",
          "173649.593000",
          "173652.093000",
          "173655.093000",
          "173657.593000",
          "173700.093000",
          "173702.593000",
          "173705.093000",
          "173708.093000",
          "173710.593000",
          "173713.093000",
          "173715.593000",
          "173718.093000",
          "173721.093000",
          "173723.593000",
          "173726.093000",
          "173728.593000",
          "173731.093000",
          "173734.093000",
          "173736.593000",
          "173739.093000",
          "173741.593000",
          "173744.093000",
          "173747.093000",
          "173749.593000",
          "173752.093000",
          "173754.593000",
          "173757.093000",
          "173800.093000",
          "173802.593000",
          "173805.093000",
          "173807.593000",
          "173810.093000",
          "173813.093000",
          "173815.593000",
          "173818.093000",
          "173820.593000",
          "173823.093000",
          "173826.093000",
          "173828.593000",
          "173831.093000",
          "173833.593000",
          "173836.093000",
          "173839.093000",
          "173841.593000",
          "173844.093000",
          "173846.593000",
          "173849.093000",
          "173852.093000",
          "173854.593000",
          "173857.093000",
          "173859.593000",
          "173902.093000",
          "173904.593000",
          "173907.593000",
          "173910.093000",
          "173912.593000",
          "173915.093000",
          "173918.093000",
          "173920.593000",
          "173923.093000",
          "173925.593000",
          "173928.093000",
          "173931.093000",
          "173933.593000",
          "173936.093000",
          "173938.593000",
          "173941.093000",
          "173944.093000",
          "173946.593000",
          "173949.093000",
          "173951.593000",
          "173954.093000",
          "173957.093000",
          "173959.593000",
          "174002.093000",
          "174004.593000",
          "174007.093000",
          "174010.093000",
          "174012.593000",
          "174015.093000",
          "174017.593000",
          "174020.093000",
          "174023.093000",
          "174025.593000",
          "174028.093000",
          "174030.593000",
          "174033.093000",
          "174036.093000",
          "174038.593000",
          "174041.093000",
          "174043.593000",
          "174046.093000",
          "174049.093000",
          "174051.593000",
          "174054.093000",
          "174056.593000",
          "174059.093000",
          "174102.093000",
          "174104.593000",
          "174107.093000",
          "174109.593000",
          "174112.093000",
          "174115.093000",
          "174117.593000",
          "174120.093000",
          "174122.593000",
          "174125.093000",
          "174128.093000",
          "174130.593000",
          "174133.093000",
          "174135.593000",
          "174138.093000",
          "174140.593000",
          "174143.593000",
          "174146.093000",
          "174148.593000",
          "174151.093000",
          "174154.093000",
          "174156.593000",
          "174159.093000",
          "174201.593000",
          "174204.093000",
          "174207.093000",
          "174209.593000",
          "174212.093000",
          "174214.593000",
          "174217.093000",
          "174220.093000",
          "174222.593000",
          "174225.093000",
          "174227.593000",
          "174230.093000",
          "174232.593000",
          "174235.593000",
          "174238.093000",
          "174240.593000",
          "174243.093000",
          "174246.093000",
          "174248.593000",
          "174251.093000",
          "174253.593000",
          "174256.093000",
          "174259.093000",
          "174301.593000",
          "174308.796000"
        ],
        "InstanceNumber": [
          1,
          2,
          3,
          4,
          5,
          6,
          7,
          8,
          9,
          10,
          11,
          12,
          13,
          14,
          15,
          16,
          17,
          18,
          19,
          20,
          21,
          22,
          23,
          24,
          25,
          26,
          27,
          28,
          29,
          30,
          31,
          32,
          33,
          34,
          35,
          36,
          37,
          38,
          39,
          40,
          41,
          42,
          43,
          44,
          45,
          46,
          47,
          48,
          49,
          50,
          51,
          52,
          53,
          54,
          55,
          56,
          57,
          58,
          59,
          60,
          61,
          62,
          63,
          64,
          65,
          66,
          67,
          68,
          69,
          70,
          71,
          72,
          73,
          74,
          75,
          76,
          77,
          78,
          79,
          80,
          81,
          82,
          83,
          84,
          85,
          86,
          87,
          88,
          89,
          90,
          91,
          92,
          93,
          94,
          95,
          96,
          97,
          98,
          99,
          100,
          101,
          102,
          103,
          104,
          105,
          106,
          107,
          108,
          109,
          110,
          111,
          112,
          113,
          114,
          115,
          116,
          117,
          118,
          119,
          120,
          121,
          122,
          123,
          124,
          125,
          126,
          127,
          128,
          129,
          130,
          131,
          132,
          133,
          134,
          135,
          136,
          137,
          138,
          139,
          140,
          141,
          142,
          143,
          144,
          145,
          146,
          147,
          148,
          149,
          150
        ],
        "WindowCenter": [
          867.0,
          865.0,
          864.0,
          865.0,
          865.0,
          865.0,
          864.0,
          865.0,
          865.0,
          864.0,
          864.0,
          865.0,
          865.0,
          864.0,
          865.0,
          868.0,
          866.0,
          864.0,
          866.0,
          865.0,
          865.0,
          866.0,
          864.0,
          864.0,
          865.0,
          866.0,
          865.0,
          865.0,
          865.0,
          865.0,
          865.0,
          865.0,
          864.0,
          865.0,
          865.0,
          865.0,
          865.0,
          865.0,
          864.0,
          864.0,
          865.0,
          865.0,
          864.0,
          864.0,
          864.0,
          865.0,
          864.0,
          864.0,
          865.0,
          865.0,
          864.0,
          864.0,
          864.0,
          864.0,
          864.0,
          865.0,
          864.0,
          864.0,
          864.0,
          864.0,
          864.0,
          864.0,
          866.0,
          865.0,
          863.0,
          863.0,
          865.0,
          865.0,
          863.0,
          863.0,
          864.0,
          864.0,
          864.0,
          865.0,
          866.0,
          865.0,
          864.0,
          864.0,
          864.0,
          865.0,
          865.0,
          865.0,
          866.0,
          865.0,
          865.0,
          865.0,
          865.0,
          867.0,
          865.0,
          864.0,
          864.0,
          864.0,
          864.0,
          864.0,
          864.0,
          865.0,
          864.0,
          863.0,
          864.0,
          865.0,
          865.0,
          864.0,
          863.0,
          864.0,
          865.0,
          864.0,
          863.0,
          863.0,
          865.0,
          865.0,
          864.0,
          864.0,
          863.0,
          864.0,
          864.0,
          863.0,
          865.0,
          866.0,
          865.0,
          864.0,
          865.0,
          864.0,
          864.0,
          864.0,
          864.0,
          864.0,
          865.0,
          865.0,
          864.0,
          864.0,
          866.0,
          865.0,
          865.0,
          865.0,
          865.0,
          865.0,
          864.0,
          865.0,
          865.0,
          864.0,
          865.0,
          865.0,
          864.0,
          865.0,
          863.0,
          863.0,
          864.0,
          864.0,
          864.0,
          864.0
        ],
        "WindowWidth": [
          2001.0,
          1996.0,
          1994.0,
          1996.0,
          1997.0,
          1995.0,
          1994.0,
          1999.0,
          1996.0,
          1993.0,
          1993.0,
          1995.0,
          1995.0,
          1992.0,
          1997.0,
          2007.0,
          1998.0,
          1994.0,
          1999.0,
          1997.0,
          1997.0,
          2000.0,
          1993.0,
          1992.0,
          1998.0,
          1999.0,
          1998.0,
          1996.0,
          1997.0,
          1997.0,
          1995.0,
          1995.0,
          1994.0,
          1996.0,
          1998.0,
          1996.0,
          1996.0,
          1998.0,
          1994.0,
          1993.0,
          1995.0,
          1997.0,
          1994.0,
          1992.0,
          1994.0,
          1996.0,
          1992.0,
          1993.0,
          1997.0,
          1997.0,
          1993.0,
          1993.0,
          1994.0,
          1992.0,
          1992.0,
          1997.0,
          1995.0,
          1995.0,
          1993.0,
          1993.0,
          1993.0,
          1994.0,
          2000.0,
          1998.0,
          1990.0,
          1989.0,
          1998.0,
          1996.0,
          1989.0,
          1989.0,
          1994.0,
          1994.0,
          1992.0,
          1995.0,
          1999.0,
          1995.0,
          1992.0,
          1992.0,
          1993.0,
          1995.0,
          1997.0,
          1997.0,
          2000.0,
          1996.0,
          1995.0,
          1998.0,
          1999.0,
          2002.0,
          1996.0,
          1993.0,
          1994.0,
          1995.0,
          1994.0,
          1993.0,
          1994.0,
          1998.0,
          1993.0,
          1990.0,
          1995.0,
          1998.0,
          1998.0,
          1993.0,
          1991.0,
          1993.0,
          1998.0,
          1993.0,
          1989.0,
          1992.0,
          1997.0,
          1996.0,
          1994.0,
          1994.0,
          1991.0,
          1995.0,
          1994.0,
          1992.0,
          1997.0,
          1999.0,
          1998.0,
          1996.0,
          1997.0,
          1994.0,
          1993.0,
          1995.0,
          1995.0,
          1994.0,
          1997.0,
          1996.0,
          1994.0,
          1994.0,
          1999.0,
          1998.0,
          1996.0,
          1997.0,
          1998.0,
          1999.0,
          1996.0,
          1999.0,
          1998.0,
          1993.0,
          1996.0,
          1996.0,
          1995.0,
          1995.0,
          1991.0,
          1989.0,
          1994.0,
          1994.0,
          1993.0,
          1993.0
        ]
      },
      "slices": {}
    }
  },
  "dummy_trs": 0,
  "dvars_nstd": 73.62359163416109,
  "dvars_std": 1.0765021578523486,
  "dvars_vstd": 1.016504345369128,
  "efc": 0.5520207094056663,
  "fber": 406.9606628417969,
  "fd_mean": 0.038980589502889906,
  "fd_num": 2,
  "fd_perc": 1.3333333333333333,
  "fwhm_avg": 2.748699642211544,
  "fwhm_x": 2.662189397479681,
  "fwhm_y": 2.625109593285213,
  "fwhm_z": 2.9587999358697386,
  "gcor": 0.0014504,
  "gsr_x": -0.02177543379366398,
  "gsr_y": 0.07550448924303055,
  "provenance": {
    "md5sum": "5b016fddfc6bf77611e1fa38bc8740d0",
    "settings": {
      "fd_thres": 0.2,
      "testing": false
    },
    "software": "mriqc",
    "version": "22.0.6",
    "webapi_port": null,
    "webapi_url": "https://mriqc.nimh.nih.gov/api/v1"
  },
  "size_t": 150,
  "size_x": 188,
  "size_y": 188,
  "size_z": 46,
  "snr": 2.1113166560045595,
  "spacing_tr": 2.5999999046325684,
  "spacing_x": 1.0957447290420532,
  "spacing_y": 1.0957447290420532,
  "spacing_z": 1.100000023841858,
  "summary_bg_k": 43.352509991628416,
  "summary_bg_mad": 21.942514530586497,
  "summary_bg_mean": 84.65312194824219,
  "summary_bg_median": 46.366668701171875,
  "summary_bg_n": 1073783.0,
  "summary_bg_p05": 30.013334274291992,
