{
  "aor": 0.0006957333333333332,
  "aqi": 0.012021526,
  "bids_meta": {
    "AcquisitionMatrixPE": 188,
    "AcquisitionNumber": 1,
    "AcquisitionTime": "18:40:5.015000",
    "BandwidthPerPixelPhaseEncode": 19.46,
    "BaseResolution": 188,
    "ConversionSoftware": "dcm2niix",
    "ConversionSoftwareVersion": "v1.0.20180606 GCC4.8.5",
    "DelayTime": 1.2,
    "DerivedVendorReportedEchoSpacing": 0.000820013,
    "DeviceSerialNumber": "18930",
    "DwellTime": 1.9e-06,
    "EchoTime": 0.02,
    "EffectiveEchoSpacing": 0.000273338,
    "FlipAngle": 80,
    "ImageComments": "Unaliased_MB2_PE2",
    "ImageOrientationPatientDICOM": [
      0.99917,
      0.0396396,
      -0.00933193,
      -0.0159716,
      0.170651,
      -0.985202
    ],
    "ImageType": [
      "ORIGINAL",
      "PRIMARY",
      "M",
      "MB",
      "ND",
      "MOSAIC"
    ],
    "InPlanePhaseEncodingDirectionDICOM": "COL",
    "InstitutionAddress": "Oxfordlaan_55_Maastricht_753AAF_Limburg_NL_6229_EV",
    "InstitutionName": "Scannexus",
    "InstitutionalDepartmentName": "MRI_7T",
    "MRAcquisitionType": "2D",
    "MagneticFieldStrength": 6.98,
    "Manufacturer": "Siemens",
    "ManufacturersModelName": "Investigational_Device_7T",
    "Modality": "MR",
    "MultibandAccelerationFactor": 2,
    "ParallelReductionFactorInPlane": 3,
    "PartialFourier": 0.75,
    "PatientPosition": "HFS",
    "PercentPhaseFOV": 100,
    "PhaseEncodingDirection": "j",
    "PhaseEncodingSteps": 141,
    "PhaseResolution": 1,
    "PixelBandwidth": 1400,
    "ProcedureStepDescription": "FeDem_Faruk",
    "ProtocolName": "cmrr_mbep2d_bold_AP_run11",
    "PulseSequenceDetails": "%CustomerSeq%_cmrr_mbep2d_bold",
    "ReceiveCoilName": "32Ch_Head_7T",
    "ReconMatrixPE": 188,
    "RepetitionTime": 2.6,
    "SAR": 0.0873361,
    "ScanOptions": "PFP_FS",
    "ScanningSequence": "EP",
    "SequenceName": "epfid2d1_188",
    "SequenceVariant": "SK_SS",
    "SeriesDescription": "cmrr_mbep2d_bold_AP_run11",
    "SeriesNumber": 24,
    "ShimSetting": [
      93,
      -33,
      463,
      631,
      -110,
      480,
      248,
      241
    ],
    "SliceThickness": 1.1,
    "SliceTiming": [
      0,
      0.735,
      0.0625,
      0.795,
      0.1225,
      0.855,
      0.185,
      0.9175,
      0.245,
      0.9775,
      0.305,
      1.04,
      0.3675,
      1.1,
      0.4275,
      1.1625,
      0.49,
      1.2225,
      0.55,
      1.285,
      0.6125,
      1.345,
      0.6725,
      0,
      0.735,
      0.0625,
      0.795,
      0.1225,
      0.855,
      0.185,
      0.9175,
      0.245,
      0.9775,
      0.305,
      1.04,
      0.3675,
      1.1,
      0.4275,
      1.1625,
      0.49,
      1.2225,
      0.55,
      1.285,
      0.6125,
      1.345,
      0.6725
    ],
    "SoftwareVersions": "syngo_MR_B17",
    "SpacingBetweenSlices": 1.1,
    "StationName": "MRC18930",
    "TaskName": "auditory",
    "TotalReadoutTime": 0.0511141,
    "TxRefAmp": 230,
    "dataset": "ds001942",
    "dcmmeta_affine": [
      [
        -1.0948357582092285,
        -0.017500832676887512,
        0.041206520050764084,
        103.71492004394531
      ],
      [
        -0.04343484342098236,
        0.18699046969413757,
        -1.0829871892929077,
        32.03782272338867
      ],
      [
        -0.01022541057318449,
        1.079529881477356,
        0.1882573366165161,
        -118.32125091552734
      ],
      [
        0.0,
        0.0,
        0.0,
        1.0
      ]
    ],
    "dcmmeta_reorient_transform": [
      [
        0.0,
        -1.0,
        0.0,
        187.0
      ],
      [
        1.0,
        0.0,
        0.0,
        0.0
      ],
      [
        0.0,
        0.0,
        1.0,
        0.0
      ],
      [
        0.0,
        0.0,
        0.0,
        1.0
      ]
    ],
    "dcmmeta_shape": [
      188,
      188,
      46,
      150
    ],
    "dcmmeta_slice_dim": 2,
    "dcmmeta_version": 0.6,
    "global": {
      "const": {
        "AcquisitionMatrix": [
          188,
          0,
          0,
          188
        ],
        "AngioFlag": "N",
        "BitsAllocated": 16,
        "BitsStored": 12,
        "Columns": 1316,
        "EchoNumbers": 1,
        "EchoTime": 20.0,
        "EchoTrainLength": 1,
        "FlipAngle": 80.0,
        "HighBit": 11,
        "ImageOrientationPatient": [
          0.99917046595386,
          0.03963956464482,
          -0.0093319280064,
          -0.0159716336989,
          0.17065148481829,
          -0.9852019983974
        ],
        "ImagePositionPatient": [
          -708.05917272675,
          -196.96491558702,
          698.17283448398
        ],
        "ImageType": [
          "ORIGINAL",
          "PRIMARY",
          "M",
          "MB",
          "ND",
          "MOSAIC"
        ],
        "ImagedNucleus": "1H",
        "ImagingFrequency": 297.205652,
        "InPlanePhaseEncodingDirection": "COL",
        "LargestImagePixelValue": 4095,
        "MRAcquisitionType": "2D",
        "MagneticFieldStrength": 6.98,
        "Manufacturer": "SIEMENS",
        "ManufacturerModelName": "Investigational_Device_7T",
        "Modality": "MR",
        "NumberOfAverages": 1.0,
        "NumberOfPhaseEncodingSteps": 141,
        "PercentPhaseFieldOfView": 100.0,
        "PercentSampling": 100.0,
        "PerformedProcedureStepStartTime": "165528.781000",
        "PhotometricInterpretation": "MONOCHROME2",
        "PixelBandwidth": 1400.0,
        "PixelRepresentation": 0,
        "PixelSpacing": [
          1.0957447290421,
          1.0957447290421
        ],
        "ProtocolName": "cmrr_mbep2d_bold_AP_run11",
        "RepetitionTime": 2600.0,
        "Rows": 1316,
        "SAR": 0.08733607544218,
        "SamplesPerPixel": 1,
        "ScanOptions": [
          "PFP",
          "FS"
        ],
        "ScanningSequence": "EP",
        "SequenceName": "epfid2d1_188",
        "SequenceVariant": [
          "SK",
          "SS"
        ],
        "SeriesDescription": "cmrr_mbep2d_bold_AP_run11",
        "SeriesNumber": 24,
        "SeriesTime": "184014.421000",
        "SliceLocation": -47.906968081104,
        "SliceThickness": 1.1000000238419,
        "SmallestImagePixelValue": 0,
        "SoftwareVersions": "syngo MR B17",
        "SpacingBetweenSlices": 1.100000010056,
        "SpecificCharacterSet": "ISO_IR 100",
        "StudyID": "1",
        "StudyTime": "165528.750000",
        "TransmitCoilName": "32Ch_Head_7T",
        "VariableFlipAngleFlag": "N",
        "WindowCenterWidthExplanation": "Algo1",
        "dBdt": 0.0
      },
      "slices": {}
    },
    "modality": "bold",
    "run_id": 11,
    "session_id": "SES03",
    "subject_id": "S09",
    "task_id": "auditory",
    "time": {
      "samples": {
        "AcquisitionNumber": [
          1,
          2,
          3,
          4,
          5,
          6,
          7,
          8,
          9,
          10,
          11,
          12,
          13,
          14,
          15,
          16,
          17,
          18,
          19,
          20,
          21,
          22,
          23,
          24,
          25,
          26,
          27,
          28,
          29,
          30,
          31,
          32,
          33,
          34,
          35,
          36,
          37,
          38,
          39,
          40,
          41,
          42,
          43,
          44,
          45,
          46,
          47,
          48,
          49,
          50,
          51,
          52,
          53,
          54,
          55,
          56,
          57,
          58,
          59,
          60,
          61,
          62,
          63,
          64,
          65,
          66,
          67,
          68,
          69,
          70,
          71,
          72,
          73,
          74,
          75,
          76,
          77,
          78,
          79,
          80,
          81,
          82,
          83,
          84,
          85,
          86,
          87,
          88,
          89,
          90,
          91,
          92,
          93,
          94,
          95,
          96,
          97,
          98,
          99,
          100,
          101,
          102,
          103,
          104,
          105,
          106,
          107,
          108,
          109,
          110,
          111,
          112,
          113,
          114,
          115,
          116,
          117,
          118,
          119,
          120,
          121,
          122,
          123,
          124,
          125,
          126,
          127,
          128,
          129,
          130,
          131,
          132,
          133,
          134,
          135,
          136,
          137,
          138,
          139,
          140,
          141,
          142,
          143,
          144,
          145,
          146,
          147,
          148,
          149,
          150
        ],
        "AcquisitionTime": [
          "184005.015000",
          "184007.625000",
          "184010.237500",
          "184012.847500",
          "184015.457500",
          "184018.067500",
          "184020.677500",
          "184023.290000",
          "184025.900000",
          "184028.510000",
          "184031.120000",
          "184033.730000",
          "184036.340000",
          "184038.952500",
          "184041.562500",
          "184044.172500",
          "184046.782500",
          "184049.392500",
          "184052.002500",
          "184054.615000",
          "184057.225000",
          "184059.835000",
          "184102.445000",
          "184105.055000",
          "184107.667500",
          "184110.277500",
          "184112.887500",
          "184115.497500",
          "184118.107500",
          "184120.717500",
          "184123.330000",
          "184125.940000",
          "184128.550000",
          "184131.160000",
          "184133.770000",
          "184136.380000",
          "184138.992500",
          "184141.602500",
          "184144.212500",
          "184146.822500",
          "184149.432500",
          "184152.045000",
          "184154.655000",
          "184157.265000",
          "184159.875000",
          "184202.485000",
          "184205.095000",
          "184207.707500",
          "184210.317500",
          "184212.927500",
          "184215.537500",
          "184218.147500",
          "184220.757500",
          "184223.370000",
          "184225.980000",
          "184228.590000",
          "184231.200000",
          "184233.810000",
          "184236.422500",
          "184239.032500",
          "184241.642500",
          "184244.252500",
          "184246.862500",
          "184249.472500",
          "184252.085000",
          "184254.695000",
          "184257.305000",
          "184259.915000",
          "184302.525000",
          "184305.135000",
          "184307.747500",
          "184310.357500",
          "184312.967500",
          "184315.577500",
          "184318.187500",
          "184320.800000",
          "184323.410000",
          "184326.020000",
          "184328.630000",
          "184331.240000",
          "184333.850000",
          "184336.462500",
          "184339.072500",
          "184341.682500",
          "184344.292500",
          "184346.902500",
          "184349.512500",
          "184352.125000",
          "184354.735000",
          "184357.345000",
          "184359.955000",
          "184402.565000",
          "184405.177500",
          "184407.787500",
          "184410.397500",
          "184413.007500",
          "184415.617500",
          "184418.227500",
          "184420.840000",
          "184423.450000",
          "184426.060000",
          "184428.670000",
          "184431.280000",
          "184433.890000",
          "184436.502500",
          "184439.112500",
          "184441.722500",
          "184444.332500",
          "184446.942500",
          "184449.555000",
          "184452.165000",
          "184454.775000",
          "184457.385000",
          "184459.995000",
          "184502.605000",
          "184505.217500",
          "184507.827500",
          "184510.437500",
          "184513.047500",
          "184515.657500",
          "184518.267500",
          "184520.880000",
          "184523.490000",
          "184526.100000",
          "184528.710000",
          "184531.320000",
          "184533.932500",
          "184536.542500",
          "184539.152500",
          "184541.762500",
          "184544.372500",
          "184546.982500",
          "184549.595000",
          "184552.205000",
          "184554.815000",
          "184557.425000",
          "184600.035000",
          "184602.645000",
          "184605.257500",
          "184607.867500",
          "184610.477500",
          "184613.087500",
          "184615.697500",
          "184618.310000",
          "184620.920000",
          "184623.530000",
          "184626.140000",
          "184628.750000",
          "184631.360000",
          "184633.972500"
        ],
        "ContentTime": [
          "184014.421000",
          "184014.906000",
          "184015.406000",
          "184017.906000",
          "184020.406000",
          "184022.906000",
          "184025.406000",
          "184028.406000",
          "184030.906000",
          "184033.406000",
          "184035.906000",
          "184038.406000",
          "184041.406000",
          "184043.906000",
          "184046.406000",
          "184048.906000",
          "184051.406000",
          "184054.406000",
          "184056.906000",
          "184059.406000",
          "184101.906000",
          "184104.406000",
          "184107.406000",
          "184109.906000",
          "184112.406000",
          "184114.906000",
          "184117.406000",
          "184120.406000",
          "184122.906000",
          "184125.406000",
          "184127.906000",
          "184130.406000",
          "184133.406000",
          "184135.906000",
          "184138.406000",
          "184140.906000",
          "184143.406000",
          "184146.406000",
          "184148.906000",
          "184151.406000",
          "184153.906000",
          "184156.406000",
          "184159.406000",
          "184201.906000",
          "184204.406000",
          "184206.906000",
          "184209.406000",
          "184212.406000",
          "184214.906000",
          "184217.406000",
          "184219.906000",
          "184222.406000",
          "184225.406000",
          "184227.906000",
          "184230.406000",
          "184232.906000",
          "184235.406000",
          "184238.406000",
          "184240.906000",
          "184243.406000",
          "184245.906000",
          "184248.406000",
          "184251.406000",
          "184253.906000",
          "184256.406000",
          "184258.906000",
          "184301.406000",
          "184304.406000",
          "184306.906000",
          "184309.406000",
          "184311.906000",
          "184314.406000",
          "184317.406000",
          "184319.906000",
          "184322.406000",
          "184324.906000",
          "184327.406000",
          "184330.406000",
          "184332.906000",
          "184335.406000",
          "184337.906000",
          "184340.406000",
          "184343.406000",
          "184345.906000",
          "184348.406000",
          "184350.906000",
          "184353.406000",
          "184356.406000",
          "184358.906000",
          "184401.406000",
          "184403.906000",
          "184406.406000",
          "184409.406000",
          "184411.906000",
          "184414.406000",
          "184416.906000",
          "184419.406000",
          "184422.406000",
          "184424.906000",
          "184427.406000",
          "184429.906000",
          "184432.406000",
          "184435.406000",
          "184437.906000",
          "184440.406000",
          "184442.906000",
          "184445.406000",
          "184448.406000",
          "184450.906000",
          "184453.406000",
          "184455.906000",
          "184458.406000",
          "184501.406000",
          "184503.906000",
          "184506.406000",
          "184508.906000",
          "184511.406000",
          "184514.406000",
          "184516.906000",
          "184519.406000",
          "184521.906000",
          "184524.406000",
          "184527.406000",
          "184529.906000",
          "184532.406000",
          "184534.906000",
          "184537.406000",
          "184540.406000",
          "184542.906000",
          "184545.406000",
          "184547.906000",
          "184550.406000",
          "184553.406000",
          "184555.906000",
          "184558.406000",
          "184600.906000",
          "184603.406000",
          "184606.406000",
          "184608.906000",
          "184611.406000",
          "184613.906000",
          "184616.406000",
          "184619.406000",
          "184621.906000",
          "184624.406000",
          "184626.906000",
          "184629.406000",
          "184632.406000",
          "184634.906000",
          "184642.140000"
        ],
        "InstanceCreationTime": [
          "184014.421000",
          "184014.906000",
          "184015.406000",
          "184017.906000",
          "184020.406000",
          "184022.906000",
          "184025.406000",
          "184028.406000",
          "184030.906000",
          "184033.406000",
          "184035.906000",
          "184038.406000",
          "184041.406000",
          "184043.906000",
          "184046.406000",
          "184048.906000",
          "184051.406000",
          "184054.406000",
          "184056.906000",
          "184059.406000",
          "184101.906000",
          "184104.406000",
          "184107.406000",
          "184109.906000",
          "184112.406000",
          "184114.906000",
          "184117.406000",
          "184120.406000",
          "184122.906000",
          "184125.406000",
          "184127.906000",
          "184130.406000",
          "184133.406000",
          "184135.906000",
          "184138.406000",
          "184140.906000",
          "184143.406000",
          "184146.406000",
          "184148.906000",
          "184151.406000",
          "184153.906000",
          "184156.406000",
          "184159.406000",
          "184201.906000",
          "184204.406000",
          "184206.906000",
          "184209.406000",
          "184212.406000",
          "184214.906000",
          "184217.406000",
          "184219.906000",
          "184222.406000",
          "184225.406000",
          "184227.906000",
          "184230.406000",
          "184232.906000",
          "184235.406000",
          "184238.406000",
          "184240.906000",
          "184243.406000",
          "184245.906000",
          "184248.406000",
          "184251.406000",
          "184253.906000",
          "184256.406000",
          "184258.906000",
          "184301.406000",
          "184304.406000",
          "184306.906000",
          "184309.406000",
          "184311.906000",
          "184314.406000",
          "184317.406000",
          "184319.906000",
          "184322.406000",
          "184324.906000",
          "184327.406000",
          "184330.406000",
          "184332.906000",
          "184335.406000",
          "184337.906000",
          "184340.406000",
          "184343.406000",
          "184345.906000",
          "184348.406000",
          "184350.906000",
          "184353.406000",
          "184356.406000",
          "184358.906000",
          "184401.406000",
          "184403.906000",
          "184406.406000",
          "184409.406000",
          "184411.906000",
          "184414.406000",
          "184416.906000",
          "184419.406000",
          "184422.406000",
          "184424.906000",
          "184427.406000",
          "184429.906000",
          "184432.406000",
          "184435.406000",
          "184437.906000",
          "184440.406000",
          "184442.906000",
          "184445.406000",
          "184448.406000",
          "184450.906000",
          "184453.406000",
          "184455.906000",
          "184458.406000",
          "184501.406000",
          "184503.906000",
          "184506.406000",
          "184508.906000",
          "184511.406000",
          "184514.406000",
          "184516.906000",
          "184519.406000",
          "184521.906000",
          "184524.406000",
          "184527.406000",
          "184529.906000",
          "184532.406000",
          "184534.906000",
          "184537.406000",
          "184540.406000",
          "184542.906000",
          "184545.406000",
          "184547.906000",
          "184550.406000",
          "184553.406000",
          "184555.906000",
          "184558.406000",
          "184600.906000",
          "184603.406000",
          "184606.406000",
          "184608.906000",
          "184611.406000",
          "184613.906000",
          "184616.406000",
          "184619.406000",
          "184621.906000",
          "184624.406000",
          "184626.906000",
          "184629.406000",
          "184632.406000",
          "184634.906000",
          "184642.140000"
        ],
        "InstanceNumber": [
          1,
          2,
          3,
          4,
          5,
          6,
          7,
          8,
          9,
          10,
          11,
          12,
          13,
          14,
          15,
          16,
          17,
          18,
          19,
          20,
          21,
          22,
          23,
          24,
          25,
          26,
          27,
          28,
          29,
          30,
          31,
          32,
          33,
          34,
          35,
          36,
          37,
          38,
          39,
          40,
          41,
          42,
          43,
          44,
          45,
          46,
          47,
          48,
          49,
          50,
          51,
          52,
          53,
          54,
          55,
          56,
          57,
          58,
          59,
          60,
          61,
          62,
          63,
          64,
          65,
          66,
          67,
          68,
          69,
          70,
          71,
          72,
          73,
          74,
          75,
          76,
          77,
          78,
          79,
          80,
          81,
          82,
          83,
          84,
          85,
          86,
          87,
          88,
          89,
          90,
          91,
          92,
          93,
          94,
          95,
          96,
          97,
          98,
          99,
          100,
          101,
          102,
          103,
          104,
          105,
          106,
          107,
          108,
          109,
          110,
          111,
          112,
          113,
          114,
          115,
          116,
          117,
          118,
          119,
          120,
          121,
          122,
          123,
          124,
          125,
          126,
          127,
          128,
          129,
          130,
          131,
          132,
          133,
          134,
          135,
          136,
          137,
          138,
          139,
          140,
          141,
          142,
          143,
          144,
          145,
          146,
          147,
          148,
          149,
          150
        ],
        "WindowCenter": [
          869.0,
          868.0,
          868.0,
          867.0,
          867.0,
          868.0,
          868.0,
          867.0,
          867.0,
          868.0,
          868.0,
          867.0,
          867.0,
          867.0,
          868.0,
          867.0,
          867.0,
          867.0,
          868.0,
          868.0,
          867.0,
          867.0,
          868.0,
          867.0,
          867.0,
          868.0,
          868.0,
          867.0,
          868.0,
          867.0,
          867.0,
          868.0,
          868.0,
          868.0,
          866.0,
          866.0,
          867.0,
          868.0,
          868.0,
          869.0,
          869.0,
          868.0,
          868.0,
          868.0,
          867.0,
          868.0,
          870.0,
          869.0,
          868.0,
          867.0,
          869.0,
          868.0,
          867.0,
          868.0,
          869.0,
          868.0,
          868.0,
          868.0,
          868.0,
          868.0,
          868.0,
          868.0,
          868.0,
          868.0,
          868.0,
          867.0,
          866.0,
          868.0,
          868.0,
          867.0,
          867.0,
          868.0,
          868.0,
          868.0,
          868.0,
          868.0,
          868.0,
          868.0,
          867.0,
          867.0,
          866.0,
          867.0,
          868.0,
          867.0,
          866.0,
          867.0,
          868.0,
          869.0,
          868.0,
          868.0,
          869.0,
          868.0,
          868.0,
          868.0,
          867.0,
          867.0,
          869.0,
          869.0,
          868.0,
          868.0,
          869.0,
          869.0,
          868.0,
          868.0,
          868.0,
          868.0,
          868.0,
          868.0,
          869.0,
          868.0,
          868.0,
          868.0,
          869.0,
          868.0,
          869.0,
          869.0,
          868.0,
          868.0,
          869.0,
          868.0,
          868.0,
          870.0,
          869.0,
          868.0,
          868.0,
          869.0,
          869.0,
          868.0,
          868.0,
          869.0,
          868.0,
          869.0,
          869.0,
          869.0,
          869.0,
          869.0,
          870.0,
          868.0,
          868.0,
          869.0,
          869.0,
          868.0,
          869.0,
          869.0,
          868.0,
          867.0,
          868.0,
          869.0,
          868.0,
          868.0
        ],
        "WindowWidth": [
          2007.0,
          2006.0,
          2005.0,
          2001.0,
          2001.0,
          2004.0,
          2003.0,
          2001.0,
          2003.0,
          2006.0,
          2005.0,
          2000.0,
          2000.0,
          2002.0,
          2003.0,
          2001.0,
          2004.0,
          2002.0,
          2004.0,
          2006.0,
          2002.0,
          2002.0,
          2004.0,
          2002.0,
          2002.0,
          2005.0,
          2004.0,
          2002.0,
          2005.0,
          2002.0,
          2000.0,
          2005.0,
          2004.0,
          2003.0,
          1998.0,
          1998.0,
          2003.0,
          2004.0,
          2004.0,
          2007.0,
          2007.0,
          2004.0,
          2006.0,
          2004.0,
          2002.0,
          2004.0,
          2010.0,
          2007.0,
          2003.0,
          2004.0,
          2010.0,
          2003.0,
          2000.0,
          2005.0,
          2007.0,
          2005.0,
          2004.0,
          2004.0,
          2004.0,
          2005.0,
          2005.0,
          2006.0,
          2005.0,
          2003.0,
          2003.0,
          2000.0,
          1999.0,
          2005.0,
          2003.0,
          2001.0,
          2001.0,
          2003.0,
          2005.0,
          2004.0,
          2007.0,
          2005.0,
          2004.0,
          2003.0,
          2004.0,
          2002.0,
          1999.0,
          2002.0,
          2006.0,
          2000.0,
          1999.0,
          2001.0,
          2006.0,
          2007.0,
          2004.0,
          2004.0,
          2008.0,
          2005.0,
          2006.0,
          2005.0,
          2002.0,
          2003.0,
          2007.0,
          2007.0,
          2004.0,
          2004.0,
          2008.0,
          2008.0,
          2004.0,
          2004.0,
          2004.0,
          2003.0,
          2004.0,
          2005.0,
          2007.0,
          2004.0,
          2003.0,
          2006.0,
          2007.0,
          2003.0,
          2008.0,
          2007.0,
          2004.0,
          2005.0,
          2008.0,
          2004.0,
          2003.0,
          2011.0,
          2007.0,
          2003.0,
          2006.0,
          2008.0,
          2008.0,
          2005.0,
          2004.0,
          2006.0,
          2006.0,
          2006.0,
          2007.0,
          2007.0,
          2007.0,
          2007.0,
          2010.0,
          2006.0,
          2004.0,
          2009.0,
          2007.0,
          2006.0,
          2007.0,
          2009.0,
          2004.0,
          2002.0,
          2005.0,
          2007.0,
          2003.0,
          2007.0
        ]
      },
      "slices": {}
    }
  },
  "dummy_trs": 0,
  "dvars_nstd": 73.39766565120802,
  "dvars_std": 1.0810035132214766,
  "dvars_vstd": 1.0195518420134224,
  "efc": 0.5529850318687964,
  "fber": 403.30450439453125,
  "fd_mean": 0.034538141530967646,
  "fd_num": 0,
  "fd_perc": 0.0,
  "fwhm_avg": 2.7871283435630274,
  "fwhm_x": 2.652698135761186,
  "fwhm_y": 2.6850596877359787,
  "fwhm_z": 3.023627207191918,
  "gcor": 0.00134203,
  "gsr_x": -0.032302990555763245,
  "gsr_y": 0.07959451526403427,
  "provenance": {
    "md5sum": "addee9eed1ed4923622a2d30a7f3d4e6",
    "settings": {
      "fd_thres": 0.2,
      "testing": false
    },
    "software": "mriqc",
    "version": "23.0.1",
    "webapi_port": null,
    "webapi_url": "https://mriqc.nimh.nih.gov/api/v1"
  },
  "size_t": 150,
  "size_x": 188,
  "size_y": 188,
  "size_z": 46,
  "snr": 2.0747362249981833,
  "spacing_tr": 2.5999999046325684,
  "spacing_x": 1.0957447290420532,
  "spacing_y": 1.0957447290420532,
  "spacing_z": 1.100000023841858,
  "summary_bg_k": 37.27316705110132,
  "summary_bg_mad": 22.169844533076855,
  "summary_bg_mean": 82.92042541503906,
  "summary_bg_median": 46.5533332824707,
  "summary_bg_n": 1064367.0,
  "summary_bg_p05": 30.0,
  "summary_bg_p95": 256.6779968261716,
  "summary_bg_stdv": 96.93366241455078,
