{
  "aor": 0.0006096296296296297,
  "aqi": 0.015536773611111112,
  "bids_meta": {
    "AcquisitionMatrixPE": 188,
    "AcquisitionNumber": 1,
    "AcquisitionTime": "15:33:52.180000",
    "BandwidthPerPixelPhaseEncode": 19.46,
    "BaseResolution": 188,
    "ConversionSoftware": "dcm2niix",
    "ConversionSoftwareVersion": "v1.0.20180606 GCC4.8.5",
    "DelayTime": 1.2,
    "DerivedVendorReportedEchoSpacing": 0.000820013,
    "DeviceSerialNumber": "18930",
    "DwellTime": 1.9e-06,
    "EchoTime": 0.02,
    "EffectiveEchoSpacing": 0.000273338,
    "FlipAngle": 80,
    "ImageComments": "Unaliased_MB2_PE2",
    "ImageOrientationPatientDICOM": [
      0.997468,
      0.049947,
      -0.0506264,
      -0.0621446,
      0.266011,
      -0.961965
    ],
    "ImageType": [
      "ORIGINAL",
      "PRIMARY",
      "M",
      "MB",
      "ND",
      "MOSAIC"
    ],
    "InPlanePhaseEncodingDirectionDICOM": "COL",
    "InstitutionAddress": "Oxfordlaan_55_Maastricht_Limburg_NL_6229_EV",
    "InstitutionName": "Scannexus",
    "InstitutionalDepartmentName": "MRI_7T",
    "MRAcquisitionType": "2D",
    "MagneticFieldStrength": 6.98,
    "Manufacturer": "Siemens",
    "ManufacturersModelName": "Investigational_Device_7T",
    "Modality": "MR",
    "MultibandAccelerationFactor": 2,
    "ParallelReductionFactorInPlane": 3,
    "PartialFourier": 0.75,
    "PatientPosition": "HFS",
    "PercentPhaseFOV": 100,
    "PhaseEncodingDirection": "j",
    "PhaseEncodingSteps": 141,
    "PhaseResolution": 1,
    "PixelBandwidth": 1400,
    "ProcedureStepDescription": "FeDem_Faruk",
    "ProtocolName": "cmrr_mbep2d_bold_AP_run13",
    "PulseSequenceDetails": "%CustomerSeq%_cmrr_mbep2d_bold",
    "ReceiveCoilName": "32Ch_Head_7T",
    "ReconMatrixPE": 188,
    "RepetitionTime": 2.6,
    "SAR": 0.0933522,
    "ScanOptions": "PFP_FS",
    "ScanningSequence": "EP",
    "SequenceName": "epfid2d1_188",
    "SequenceVariant": "SK_SS",
    "SeriesDescription": "cmrr_mbep2d_bold_AP_run13",
    "SeriesNumber": 14,
    "ShimSetting": [
      94,
      -225,
      493,
      452,
      94,
      -189,
      -57,
      166
    ],
    "SliceThickness": 1.1,
    "SliceTiming": [
      0,
      0.735,
      0.0625,
      0.795,
      0.1225,
      0.8575,
      0.185,
      0.9175,
      0.245,
      0.9775,
      0.3075,
      1.04,
      0.3675,
      1.1,
      0.43,
      1.1625,
      0.49,
      1.2225,
      0.55,
      1.285,
      0.6125,
      1.345,
      0.6725,
      0,
      0.735,
      0.0625,
      0.795,
      0.1225,
      0.8575,
      0.185,
      0.9175,
      0.245,
      0.9775,
      0.3075,
      1.04,
      0.3675,
      1.1,
      0.43,
      1.1625,
      0.49,
      1.2225,
      0.55,
      1.285,
      0.6125,
      1.345,
      0.6725
    ],
    "SoftwareVersions": "syngo_MR_B17",
    "SpacingBetweenSlices": 1.1,
    "StationName": "MRC18930",
    "TaskName": "auditory",
    "TotalReadoutTime": 0.0511141,
    "TxRefAmp": 245,
    "dataset": "ds001942",
    "dcmmeta_affine": [
      [
        -1.0929702520370483,
        -0.0680946335196495,
        0.03803808614611626,
        108.62665557861328
      ],
      [
        -0.05472918599843979,
        0.29148048162460327,
        -1.058942437171936,
        18.910226821899414
      ],
      [
        -0.05547358840703964,
        1.0540677309036255,
        0.29528582096099854,
        -109.4985122680664
      ],
      [
        0.0,
        0.0,
        0.0,
        1.0
      ]
    ],
    "dcmmeta_reorient_transform": [
      [
        0.0,
        -1.0,
        0.0,
        187.0
      ],
      [
        1.0,
        0.0,
        0.0,
        0.0
      ],
      [
        0.0,
        0.0,
        1.0,
        0.0
      ],
      [
        0.0,
        0.0,
        0.0,
        1.0
      ]
    ],
    "dcmmeta_shape": [
      188,
      188,
      46,
      216
    ],
    "dcmmeta_slice_dim": 2,
    "dcmmeta_version": 0.6,
    "global": {
      "const": {
        "AcquisitionMatrix": [
          188,
          0,
          0,
          188
        ],
        "AngioFlag": "N",
        "BitsAllocated": 16,
        "BitsStored": 12,
        "Columns": 1316,
        "EchoNumbers": 1,
        "EchoTime": 20.0,
        "EchoTrainLength": 1,
        "FlipAngle": 80.0,
        "HighBit": 11,
        "ImageOrientationPatient": [
          0.99746792660154,
          0.04994702250317,
          -0.0506263799248,
          -0.0621446160462,
          0.26601129568337,
          -0.9619646756848
        ],
        "ImagePositionPatient": [
          -673.92279089922,
          -268.679324741,
          713.39344885895
        ],
        "ImageType": [
          "ORIGINAL",
          "PRIMARY",
          "M",
          "MB",
          "ND",
          "MOSAIC"
        ],
        "ImagedNucleus": "1H",
        "ImagingFrequency": 297.205446,
        "InPlanePhaseEncodingDirection": "COL",
        "LargestImagePixelValue": 4095,
        "MRAcquisitionType": "2D",
        "MagneticFieldStrength": 6.98,
        "Manufacturer": "SIEMENS",
        "ManufacturerModelName": "Investigational_Device_7T",
        "Modality": "MR",
        "NumberOfAverages": 1.0,
        "NumberOfPhaseEncodingSteps": 141,
        "PercentPhaseFieldOfView": 100.0,
        "PercentSampling": 100.0,
        "PerformedProcedureStepStartTime": "141952.000000",
        "PhotometricInterpretation": "MONOCHROME2",
        "PixelBandwidth": 1400.0,
        "PixelRepresentation": 0,
        "PixelSpacing": [
          1.0957447290421,
          1.0957447290421
        ],
        "ProtocolName": "cmrr_mbep2d_bold_AP_run13",
        "RepetitionTime": 2600.0,
        "Rows": 1316,
        "SAR": 0.09335220620646,
        "SamplesPerPixel": 1,
        "ScanOptions": [
          "PFP",
          "FS"
        ],
        "ScanningSequence": "EP",
        "SequenceName": "epfid2d1_188",
        "SequenceVariant": [
          "SK",
          "SS"
        ],
        "SeriesDescription": "cmrr_mbep2d_bold_AP_run13",
        "SeriesNumber": 14,
        "SeriesTime": "153455.046000",
        "SliceLocation": -43.842049741321,
        "SliceThickness": 1.1000000238419,
        "SmallestImagePixelValue": 0,
        "SoftwareVersions": "syngo MR B17",
        "SpacingBetweenSlices": 1.0999998699709,
        "SpecificCharacterSet": "ISO_IR 100",
        "StudyID": "1",
        "StudyTime": "141951.937000",
        "TransmitCoilName": "32Ch_Head_7T",
        "VariableFlipAngleFlag": "N",
        "WindowCenterWidthExplanation": "Algo1",
        "dBdt": 0.0
      },
      "slices": {}
    },
    "modality": "bold",
    "run_id": 5,
    "session_id": "SES05",
    "subject_id": "S11",
    "task_id": "auditory",
    "time": {
      "samples": {
        "AcquisitionNumber": [
          1,
          2,
          3,
          4,
          5,
          6,
          7,
          8,
          9,
          10,
          11,
          12,
          13,
          14,
          15,
          16,
          17,
          18,
          19,
          20,
          21,
          22,
          23,
          24,
          25,
          26,
          27,
          28,
          29,
          30,
          31,
          32,
          33,
          34,
          35,
          36,
          37,
          38,
          39,
          40,
          41,
          42,
          43,
          44,
          45,
          46,
          47,
          48,
          49,
          50,
          51,
          52,
          53,
          54,
          55,
          56,
          57,
          58,
          59,
          60,
          61,
          62,
          63,
          64,
          65,
          66,
          67,
          68,
          69,
          70,
          71,
          72,
          73,
          74,
          75,
          76,
          77,
          78,
          79,
          80,
          81,
          82,
          83,
          84,
          85,
          86,
          87,
          88,
          89,
          90,
          91,
          92,
          93,
          94,
          95,
          96,
          97,
          98,
          99,
          100,
          101,
          102,
          103,
          104,
          105,
          106,
          107,
          108,
          109,
          110,
          111,
          112,
          113,
          114,
          115,
          116,
          117,
          118,
          119,
          120,
          121,
          122,
          123,
          124,
          125,
          126,
          127,
          128,
          129,
          130,
          131,
          132,
          133,
          134,
          135,
          136,
          137,
          138,
          139,
          140,
          141,
          142,
          143,
          144,
          145,
          146,
          147,
          148,
          149,
          150,
          151,
          152,
          153,
          154,
          155,
          156,
          157,
          158,
          159,
          160,
          161,
          162,
          163,
          164,
          165,
          166,
          167,
          168,
          169,
          170,
          171,
          172,
          173,
          174,
          175,
          176,
          177,
          178,
          179,
          180,
          181,
          182,
          183,
          184,
          185,
          186,
          187,
          188,
          189,
          190,
          191,
          192,
          193,
          194,
          195,
          196,
          197,
          198,
          199,
          200,
          201,
          202,
          203,
          204,
          205,
          206,
          207,
          208,
          209,
          210,
          211,
          212,
          213,
          214,
          215,
          216
        ],
        "AcquisitionTime": [
          "153352.180000",
          "153354.792500",
          "153357.402500",
          "153400.012500",
          "153402.622500",
          "153405.232500",
          "153407.842500",
          "153410.455000",
          "153413.065000",
          "153415.675000",
          "153418.285000",
          "153420.895000",
          "153423.507500",
          "153426.117500",
          "153428.727500",
          "153431.337500",
          "153433.947500",
          "153436.557500",
          "153439.170000",
          "153441.780000",
          "153444.390000",
          "153447.000000",
          "153449.610000",
          "153452.220000",
          "153454.832500",
          "153457.442500",
          "153500.052500",
          "153502.662500",
          "153505.272500",
          "153507.885000",
          "153510.495000",
          "153513.105000",
          "153515.715000",
          "153518.325000",
          "153520.935000",
          "153523.547500",
          "153526.157500",
          "153528.767500",
          "153531.377500",
          "153533.987500",
          "153536.597500",
          "153539.210000",
          "153541.820000",
          "153544.430000",
          "153547.040000",
          "153549.650000",
          "153552.262500",
          "153554.872500",
          "153557.482500",
          "153600.092500",
          "153602.702500",
          "153605.312500",
          "153607.925000",
          "153610.535000",
          "153613.145000",
          "153615.755000",
          "153618.365000",
          "153620.975000",
          "153623.587500",
          "153626.197500",
          "153628.807500",
          "153631.417500",
          "153634.027500",
          "153636.640000",
          "153639.250000",
          "153641.860000",
          "153644.470000",
          "153647.080000",
          "153649.690000",
          "153652.302500",
          "153654.912500",
          "153657.522500",
          "153700.132500",
          "153702.742500",
          "153705.352500",
          "153707.965000",
          "153710.575000",
          "153713.185000",
          "153715.795000",
          "153718.405000",
          "153721.017500",
          "153723.627500",
          "153726.237500",
          "153728.847500",
          "153731.457500",
          "153734.067500",
          "153736.680000",
          "153739.290000",
          "153741.900000",
          "153744.510000",
          "153747.120000",
          "153749.732500",
          "153752.342500",
          "153754.952500",
          "153757.562500",
          "153800.172500",
          "153802.782500",
          "153805.395000",
          "153808.005000",
          "153810.615000",
          "153813.225000",
          "153815.835000",
          "153818.445000",
          "153821.057500",
          "153823.667500",
          "153826.277500",
          "153828.887500",
          "153831.497500",
          "153834.110000",
          "153836.720000",
          "153839.330000",
          "153841.940000",
          "153844.550000",
          "153847.160000",
          "153849.772500",
          "153852.382500",
          "153854.992500",
          "153857.602500",
          "153900.212500",
          "153902.822500",
          "153905.435000",
          "153908.045000",
          "153910.655000",
          "153913.265000",
          "153915.875000",
          "153918.487500",
          "153921.097500",
          "153923.707500",
          "153926.317500",
          "153928.927500",
          "153931.537500",
          "153934.150000",
          "153936.760000",
          "153939.370000",
          "153941.980000",
          "153944.590000",
          "153947.200000",
          "153949.812500",
          "153952.422500",
          "153955.032500",
          "153957.642500",
          "154000.252500",
          "154002.865000",
          "154005.475000",
          "154008.085000",
          "154010.695000",
          "154013.305000",
          "154015.915000",
          "154018.527500",
          "154021.137500",
          "154023.747500",
          "154026.357500",
          "154028.967500",
          "154031.577500",
          "154034.190000",
          "154036.800000",
          "154039.410000",
          "154042.020000",
          "154044.630000",
          "154047.242500",
          "154049.852500",
          "154052.462500",
          "154055.072500",
          "154057.682500",
          "154100.292500",
          "154102.905000",
          "154105.515000",
          "154108.125000",
          "154110.735000",
          "154113.345000",
          "154115.955000",
          "154118.567500",
          "154121.177500",
          "154123.787500",
          "154126.397500",
          "154129.007500",
          "154131.620000",
          "154134.230000",
          "154136.840000",
          "154139.450000",
          "154142.060000",
          "154144.670000",
          "154147.282500",
          "154149.892500",
          "154152.502500",
          "154155.112500",
          "154157.722500",
          "154200.332500",
          "154202.945000",
          "154205.555000",
          "154208.165000",
          "154210.775000",
          "154213.385000",
          "154215.997500",
          "154218.607500",
          "154221.217500",
          "154223.827500",
          "154226.437500",
          "154229.047500",
          "154231.660000",
          "154234.270000",
          "154236.880000",
          "154239.490000",
          "154242.100000",
          "154244.710000",
          "154247.322500",
          "154249.932500",
          "154252.542500",
          "154255.152500",
          "154257.762500",
          "154300.375000",
          "154302.985000",
          "154305.595000",
          "154308.205000",
          "154310.815000",
          "154313.425000"
        ],
        "ContentTime": [
          "153455.046000",
          "153455.062000",
          "153455.062000",
          "153455.062000",
          "153455.062000",
          "153455.078000",
          "153455.078000",
          "153455.078000",
          "153455.078000",
          "153455.078000",
          "153455.078000",
          "153455.078000",
          "153455.078000",
          "153455.093000",
          "153455.093000",
          "153455.093000",
          "153455.093000",
          "153455.093000",
          "153455.093000",
          "153455.093000",
          "153455.109000",
          "153455.109000",
          "153455.109000",
          "153555.046000",
          "153555.046000",
          "153555.046000",
          "153555.046000",
          "153555.046000",
          "153555.046000",
          "153555.046000",
          "153555.062000",
          "153555.062000",
          "153555.062000",
          "153555.062000",
          "153555.062000",
          "153555.062000",
          "153555.062000",
          "153555.062000",
          "153555.078000",
          "153555.078000",
          "153555.078000",
          "153555.078000",
          "153555.078000",
          "153555.093000",
          "153555.093000",
          "153555.093000",
          "153655.046000",
          "153655.046000",
          "153655.046000",
          "153655.046000",
          "153655.046000",
          "153655.046000",
          "153655.046000",
          "153655.062000",
          "153655.062000",
          "153655.062000",
          "153655.062000",
          "153655.062000",
          "153655.062000",
          "153655.062000",
          "153655.078000",
          "153655.078000",
          "153655.078000",
          "153655.078000",
          "153655.078000",
          "153655.078000",
          "153655.093000",
          "153655.093000",
          "153655.093000",
          "153755.046000",
          "153755.046000",
          "153755.046000",
          "153755.046000",
          "153755.046000",
          "153755.046000",
          "153755.046000",
          "153755.062000",
          "153755.062000",
          "153755.062000",
          "153755.062000",
          "153755.062000",
          "153755.062000",
          "153755.062000",
          "153755.062000",
          "153755.078000",
          "153755.078000",
          "153755.078000",
          "153755.078000",
          "153755.078000",
          "153755.078000",
          "153755.078000",
          "153755.078000",
          "153855.046000",
          "153855.046000",
          "153855.046000",
          "153855.046000",
          "153855.046000",
          "153855.046000",
          "153855.046000",
          "153855.062000",
          "153855.062000",
          "153855.062000",
          "153855.062000",
          "153855.078000",
          "153855.078000",
          "153855.078000",
          "153855.078000",
          "153855.078000",
          "153855.078000",
          "153855.078000",
          "153855.078000",
          "153855.093000",
          "153855.093000",
          "153855.093000",
          "153855.093000",
          "153855.093000",
          "153955.046000",
          "153955.046000",
          "153955.046000",
          "153955.046000",
          "153955.046000",
          "153955.046000",
          "153955.046000",
          "153955.062000",
          "153955.062000",
          "153955.062000",
          "153955.062000",
          "153955.062000",
          "153955.078000",
          "153955.078000",
          "153955.078000",
          "153955.093000",
          "153955.093000",
          "153955.093000",
          "153955.093000",
          "153955.093000",
          "153955.093000",
          "153955.093000",
          "153955.093000",
          "154055.046000",
          "154055.046000",
          "154055.046000",
          "154055.046000",
          "154055.046000",
          "154055.046000",
          "154055.046000",
          "154055.062000",
          "154055.062000",
          "154055.062000",
          "154055.062000",
          "154055.062000",
          "154055.062000",
          "154055.062000",
          "154055.062000",
          "154055.078000",
          "154055.078000",
          "154055.078000",
          "154055.078000",
          "154055.078000",
          "154055.078000",
          "154055.078000",
          "154055.078000",
          "154155.046000",
          "154155.046000",
          "154155.046000",
          "154155.046000",
          "154155.046000",
          "154155.046000",
          "154155.046000",
          "154155.062000",
          "154155.062000",
          "154155.062000",
          "154155.062000",
          "154155.078000",
          "154155.078000",
          "154155.078000",
          "154155.078000",
          "154155.078000",
          "154155.078000",
          "154155.078000",
          "154155.078000",
          "154155.093000",
          "154155.093000",
          "154155.093000",
          "154155.093000",
          "154255.046000",
          "154255.046000",
          "154255.046000",
          "154255.046000",
          "154255.046000",
          "154255.046000",
          "154255.046000",
          "154255.062000",
          "154255.062000",
          "154255.062000",
          "154255.062000",
          "154255.078000",
          "154255.078000",
          "154255.078000",
          "154255.078000",
          "154255.078000",
          "154255.078000",
          "154255.093000",
          "154255.093000",
          "154255.093000",
          "154255.093000",
          "154255.093000",
          "154255.093000",
          "154319.796000",
          "154319.796000",
          "154319.796000",
          "154319.796000",
          "154319.796000",
          "154319.812000",
          "154319.812000",
          "154319.812000"
        ],
        "InstanceCreationTime": [
          "153455.046000",
          "153455.062000",
          "153455.062000",
          "153455.062000",
          "153455.062000",
          "153455.078000",
          "153455.078000",
          "153455.078000",
          "153455.078000",
          "153455.078000",
          "153455.078000",
          "153455.078000",
          "153455.078000",
          "153455.093000",
          "153455.093000",
          "153455.093000",
          "153455.093000",
          "153455.093000",
          "153455.093000",
          "153455.093000",
          "153455.109000",
          "153455.109000",
          "153455.109000",
          "153555.046000",
          "153555.046000",
          "153555.046000",
          "153555.046000",
          "153555.046000",
          "153555.046000",
          "153555.046000",
          "153555.062000",
          "153555.062000",
          "153555.062000",
          "153555.062000",
          "153555.062000",
          "153555.062000",
          "153555.062000",
          "153555.062000",
          "153555.078000",
          "153555.078000",
          "153555.078000",
          "153555.078000",
          "153555.078000",
          "153555.093000",
          "153555.093000",
          "153555.093000",
          "153655.046000",
          "153655.046000",
          "153655.046000",
          "153655.046000",
          "153655.046000",
          "153655.046000",
          "153655.046000",
          "153655.062000",
          "153655.062000",
          "153655.062000",
          "153655.062000",
          "153655.062000",
          "153655.062000",
          "153655.062000",
          "153655.078000",
          "153655.078000",
          "153655.078000",
          "153655.078000",
          "153655.078000",
          "153655.078000",
          "153655.093000",
          "153655.093000",
          "153655.093000",
          "153755.046000",
          "153755.046000",
          "153755.046000",
          "153755.046000",
          "153755.046000",
          "153755.046000",
          "153755.046000",
          "153755.062000",
          "153755.062000",
          "153755.062000",
          "153755.062000",
          "153755.062000",
          "153755.062000",
          "153755.062000",
          "153755.062000",
          "153755.078000",
          "153755.078000",
          "153755.078000",
          "153755.078000",
          "153755.078000",
          "153755.078000",
          "153755.078000",
          "153755.078000",
          "153855.046000",
          "153855.046000",
          "153855.046000",
          "153855.046000",
          "153855.046000",
          "153855.046000",
          "153855.046000",
          "153855.062000",
          "153855.062000",
          "153855.062000",
          "153855.062000",
          "153855.078000",
          "153855.078000",
          "153855.078000",
          "153855.078000",
          "153855.078000",
          "153855.078000",
          "153855.078000",
          "153855.078000",
          "153855.093000",
          "153855.093000",
          "153855.093000",
          "153855.093000",
          "153855.093000",
          "153955.046000",
          "153955.046000",
          "153955.046000",
          "153955.046000",
          "153955.046000",
          "153955.046000",
          "153955.046000",
          "153955.062000",
          "153955.062000",
          "153955.062000",
          "153955.062000",
          "153955.062000",
          "153955.078000",
          "153955.078000",
          "153955.078000",
          "153955.093000",
          "153955.093000",
          "153955.093000",
          "153955.093000",
          "153955.093000",
          "153955.093000",
          "153955.093000",
          "153955.093000",
          "154055.046000",
          "154055.046000",
          "154055.046000",
          "154055.046000",
          "154055.046000",
          "154055.046000",
          "154055.046000",
          "154055.062000",
          "154055.062000",
          "154055.062000",
          "154055.062000",
          "154055.062000",
          "154055.062000",
          "154055.062000",
          "154055.062000",
          "154055.078000",
          "154055.078000",
          "154055.078000",
          "154055.078000",
          "154055.078000",
          "154055.078000",
          "154055.078000",
          "154055.078000",
          "154155.046000",
          "154155.046000",
          "154155.046000",
          "154155.046000",
          "154155.046000",
          "154155.046000",
          "154155.046000",
          "154155.062000",
          "154155.062000",
          "154155.062000",
          "154155.062000",
          "154155.078000",
          "154155.078000",
          "154155.078000",
          "154155.078000",
          "154155.078000",
          "154155.078000",
          "154155.078000",
          "154155.078000",
          "154155.093000",
          "154155.093000",
          "154155.093000",
          "154155.093000",
          "154255.046000",
          "154255.046000",
          "154255.046000",
          "154255.046000",
          "154255.046000",
          "154255.046000",
          "154255.046000",
          "154255.062000",
          "154255.062000",
          "154255.062000",
          "154255.062000",
          "154255.078000",
          "154255.078000",
          "154255.078000",
          "154255.078000",
          "154255.078000",
          "154255.078000",
          "154255.093000",
          "154255.093000",
          "154255.093000",
          "154255.093000",
          "154255.093000",
          "154255.093000",
          "154319.796000",
          "154319.796000",
          "154319.796000",
          "154319.796000",
          "154319.796000",
          "154319.812000",
          "154319.812000",
          "154319.812000"
        ],
        "InstanceNumber": [
          1,
          2,
          3,
          4,
          5,
          6,
          7,
          8,
          9,
          10,
          11,
          12,
          13,
          14,
          15,
          16,
          17,
          18,
          19,
          20,
          21,
          22,
          23,
          24,
          25,
          26,
          27,
          28,
          29,
          30,
          31,
          32,
          33,
          34,
          35,
          36,
          37,
          38,
          39,
          40,
          41,
          42,
          43,
          44,
          45,
          46,
          47,
          48,
          49,
          50,
          51,
          52,
          53,
          54,
          55,
          56,
          57,
          58,
          59,
          60,
          61,
          62,
          63,
          64,
          65,
          66,
          67,
          68,
          69,
          70,
          71,
          72,
          73,
          74,
          75,
          76,
          77,
          78,
          79,
          80,
          81,
          82,
          83,
          84,
          85,
          86,
          87,
          88,
          89,
          90,
          91,
          92,
          93,
          94,
          95,
          96,
          97,
          98,
          99,
          100,
          101,
          102,
          103,
          104,
          105,
          106,
          107,
          108,
          109,
          110,
          111,
          112,
          113,
          114,
          115,
          116,
          117,
          118,
          119,
          120,
          121,
          122,
          123,
          124,
          125,
          126,
          127,
          128,
          129,
          130,
          131,
          132,
          133,
          134,
          135,
          136,
          137,
          138,
          139,
          140,
          141,
          142,
          143,
          144,
          145,
          146,
          147,
          148,
          149,
          150,
          151,
          152,
          153,
          154,
          155,
          156,
          157,
          158,
          159,
          160,
          161,
          162,
          163,
          164,
          165,
          166,
          167,
          168,
          169,
          170,
