{
  "aor": 0.0004955555555555555,
  "aqi": 0.01468145,
  "bids_meta": {
    "AcquisitionMatrixPE": 188,
    "AcquisitionNumber": 1,
    "AcquisitionTime": "15:55:26.207500",
    "BandwidthPerPixelPhaseEncode": 19.46,
    "BaseResolution": 188,
    "CogAtlasID": "TODO",
    "ConversionSoftware": "dcm2niix",
    "ConversionSoftwareVersion": "v1.0.20180606 GCC4.8.5",
    "DelayTime": 1.2,
    "DerivedVendorReportedEchoSpacing": 0.000820013,
    "DeviceSerialNumber": "18930",
    "DwellTime": 1.9e-06,
    "EchoTime": 0.02,
    "EffectiveEchoSpacing": 0.000273338,
    "FlipAngle": 80,
    "ImageComments": "Unaliased_MB2_PE2",
    "ImageOrientationPatientDICOM": [
      0.997468,
      0.049947,
      -0.0506264,
      -0.0621446,
      0.266011,
      -0.961965
    ],
    "ImageType": [
      "ORIGINAL",
      "PRIMARY",
      "M",
      "MB",
      "ND",
      "MOSAIC"
    ],
    "InPlanePhaseEncodingDirectionDICOM": "COL",
    "InstitutionAddress": "Oxfordlaan_55_Maastricht_Limburg_NL_6229_EV",
    "InstitutionName": "Scannexus",
    "InstitutionalDepartmentName": "MRI_7T",
    "MRAcquisitionType": "2D",
    "MagneticFieldStrength": 6.98,
    "Manufacturer": "Siemens",
    "ManufacturersModelName": "Investigational_Device_7T",
    "Modality": "MR",
    "MultibandAccelerationFactor": 2,
    "ParallelReductionFactorInPlane": 3,
    "PartialFourier": 0.75,
    "PatientPosition": "HFS",
    "PercentPhaseFOV": 100,
    "PhaseEncodingDirection": "j",
    "PhaseEncodingSteps": 141,
    "PhaseResolution": 1,
    "PixelBandwidth": 1400,
    "ProcedureStepDescription": "FeDem_Faruk",
    "ProtocolName": "cmrr_mbep2d_bold_AP_run15",
    "PulseSequenceDetails": "%CustomerSeq%_cmrr_mbep2d_bold",
    "ReceiveCoilName": "32Ch_Head_7T",
    "ReconMatrixPE": 188,
    "RepetitionTime": 2.6,
    "SAR": 0.0930778,
    "ScanOptions": "PFP_FS",
    "ScanningSequence": "EP",
    "SequenceName": "epfid2d1_188",
    "SequenceVariant": "SK_SS",
    "SeriesDescription": "cmrr_mbep2d_bold_AP_run15",
    "SeriesNumber": 16,
    "ShimSetting": [
      94,
      -225,
      493,
      452,
      94,
      -189,
      -57,
      166
    ],
    "SliceThickness": 1.1,
    "SliceTiming": [
      0,
      0.7325,
      0.06,
      0.7925,
      0.1225,
      0.855,
      0.1825,
      0.915,
      0.2425,
      0.9775,
      0.305,
      1.0375,
      0.365,
      1.1,
      0.4275,
      1.16,
      0.4875,
      1.2225,
      0.55,
      1.2825,
      0.61,
      1.3425,
      0.6725,
      0,
      0.7325,
      0.06,
      0.7925,
      0.1225,
      0.855,
      0.1825,
      0.915,
      0.2425,
      0.9775,
      0.305,
      1.0375,
      0.365,
      1.1,
      0.4275,
      1.16,
      0.4875,
      1.2225,
      0.55,
      1.2825,
      0.61,
      1.3425,
      0.6725
    ],
    "SoftwareVersions": "syngo_MR_B17",
    "SpacingBetweenSlices": 1.1,
    "StationName": "MRC18930",
    "TaskName": "auditory",
    "TotalReadoutTime": 0.0511141,
    "TxRefAmp": 245,
    "dataset": "ds001942",
    "dcmmeta_affine": [
      [
        -1.0929702520370483,
        -0.0680946335196495,
        0.03803808614611626,
        108.62665557861328
      ],
      [
        -0.05472918599843979,
        0.29148048162460327,
        -1.058942437171936,
        18.910226821899414
      ],
      [
        -0.05547358840703964,
        1.0540677309036255,
        0.29528582096099854,
        -109.4985122680664
      ],
      [
        0.0,
        0.0,
        0.0,
        1.0
      ]
    ],
    "dcmmeta_reorient_transform": [
      [
        0.0,
        -1.0,
        0.0,
        187.0
      ],
      [
        1.0,
        0.0,
        0.0,
        0.0
      ],
      [
        0.0,
        0.0,
        1.0,
        0.0
      ],
      [
        0.0,
        0.0,
        0.0,
        1.0
      ]
    ],
    "dcmmeta_shape": [
      188,
      188,
      46,
      216
    ],
    "dcmmeta_slice_dim": 2,
    "dcmmeta_version": 0.6,
    "global": {
      "const": {
        "AcquisitionMatrix": [
          188,
          0,
          0,
          188
        ],
        "AngioFlag": "N",
        "BitsAllocated": 16,
        "BitsStored": 12,
        "Columns": 1316,
        "EchoNumbers": 1,
        "EchoTime": 20.0,
        "EchoTrainLength": 1,
        "FlipAngle": 80.0,
        "HighBit": 11,
        "ImageOrientationPatient": [
          0.99746792660154,
          0.04994702250317,
          -0.0506263799248,
          -0.0621446160462,
          0.26601129568337,
          -0.9619646756848
        ],
        "ImagePositionPatient": [
          -673.92279089922,
          -268.679324741,
          713.39344885895
        ],
        "ImageType": [
          "ORIGINAL",
          "PRIMARY",
          "M",
          "MB",
          "ND",
          "MOSAIC"
        ],
        "ImagedNucleus": "1H",
        "ImagingFrequency": 297.20545,
        "InPlanePhaseEncodingDirection": "COL",
        "LargestImagePixelValue": 4095,
        "MRAcquisitionType": "2D",
        "MagneticFieldStrength": 6.98,
        "Manufacturer": "SIEMENS",
        "ManufacturerModelName": "Investigational_Device_7T",
        "Modality": "MR",
        "NumberOfAverages": 1.0,
        "NumberOfPhaseEncodingSteps": 141,
        "PercentPhaseFieldOfView": 100.0,
        "PercentSampling": 100.0,
        "PerformedProcedureStepStartTime": "141952.000000",
        "PhotometricInterpretation": "MONOCHROME2",
        "PixelBandwidth": 1400.0,
        "PixelRepresentation": 0,
        "PixelSpacing": [
          1.0957447290421,
          1.0957447290421
        ],
        "ProtocolName": "cmrr_mbep2d_bold_AP_run15",
        "RepetitionTime": 2600.0,
        "Rows": 1316,
        "SAR": 0.09307782859001,
        "SamplesPerPixel": 1,
        "ScanOptions": [
          "PFP",
          "FS"
        ],
        "ScanningSequence": "EP",
        "SequenceName": "epfid2d1_188",
        "SequenceVariant": [
          "SK",
          "SS"
        ],
        "SeriesDescription": "cmrr_mbep2d_bold_AP_run15",
        "SeriesNumber": 16,
        "SeriesTime": "155624.765000",
        "SliceLocation": -43.842049741321,
        "SliceThickness": 1.1000000238419,
        "SmallestImagePixelValue": 0,
        "SoftwareVersions": "syngo MR B17",
        "SpacingBetweenSlices": 1.0999998699709,
        "SpecificCharacterSet": "ISO_IR 100",
        "StudyID": "1",
        "StudyTime": "141951.937000",
        "TransmitCoilName": "32Ch_Head_7T",
        "VariableFlipAngleFlag": "N",
        "WindowCenterWidthExplanation": "Algo1",
        "dBdt": 0.0
      },
      "slices": {}
    },
    "modality": "bold",
    "run_id": 7,
    "session_id": "SES05",
    "subject_id": "S11",
    "task_id": "auditory",
    "time": {
      "samples": {
        "AcquisitionNumber": [
          1,
          2,
          3,
          4,
          5,
          6,
          7,
          8,
          9,
          10,
          11,
          12,
          13,
          14,
          15,
          16,
          17,
          18,
          19,
          20,
          21,
          22,
          23,
          24,
          25,
          26,
          27,
          28,
          29,
          30,
          31,
          32,
          33,
          34,
          35,
          36,
          37,
          38,
          39,
          40,
          41,
          42,
          43,
          44,
          45,
          46,
          47,
          48,
          49,
          50,
          51,
          52,
          53,
          54,
          55,
          56,
          57,
          58,
          59,
          60,
          61,
          62,
          63,
          64,
          65,
          66,
          67,
          68,
          69,
          70,
          71,
          72,
          73,
          74,
          75,
          76,
          77,
          78,
          79,
          80,
          81,
          82,
          83,
          84,
          85,
          86,
          87,
          88,
          89,
          90,
          91,
          92,
          93,
          94,
          95,
          96,
          97,
          98,
          99,
          100,
          101,
          102,
          103,
          104,
          105,
          106,
          107,
          108,
          109,
          110,
          111,
          112,
          113,
          114,
          115,
          116,
          117,
          118,
          119,
          120,
          121,
          122,
          123,
          124,
          125,
          126,
          127,
          128,
          129,
          130,
          131,
          132,
          133,
          134,
          135,
          136,
          137,
          138,
          139,
          140,
          141,
          142,
          143,
          144,
          145,
          146,
          147,
          148,
          149,
          150,
          151,
          152,
          153,
          154,
          155,
          156,
          157,
          158,
          159,
          160,
          161,
          162,
          163,
          164,
          165,
          166,
          167,
          168,
          169,
          170,
          171,
          172,
          173,
          174,
          175,
          176,
          177,
          178,
          179,
          180,
          181,
          182,
          183,
          184,
          185,
          186,
          187,
          188,
          189,
          190,
          191,
          192,
          193,
          194,
          195,
          196,
          197,
          198,
          199,
          200,
          201,
          202,
          203,
          204,
          205,
          206,
          207,
          208,
          209,
          210,
          211,
          212,
          213,
          214,
          215,
          216
        ],
        "AcquisitionTime": [
          "155526.207500",
          "155528.817500",
          "155531.427500",
          "155534.037500",
          "155536.647500",
          "155539.260000",
          "155541.870000",
          "155544.480000",
          "155547.090000",
          "155549.700000",
          "155552.310000",
          "155554.922500",
          "155557.532500",
          "155600.142500",
          "155602.752500",
          "155605.362500",
          "155607.975000",
          "155610.585000",
          "155613.195000",
          "155615.805000",
          "155618.415000",
          "155621.025000",
          "155623.637500",
          "155626.247500",
          "155628.857500",
          "155631.467500",
          "155634.077500",
          "155636.687500",
          "155639.300000",
          "155641.910000",
          "155644.520000",
          "155647.130000",
          "155649.740000",
          "155652.352500",
          "155654.962500",
          "155657.572500",
          "155700.182500",
          "155702.792500",
          "155705.402500",
          "155708.015000",
          "155710.625000",
          "155713.235000",
          "155715.845000",
          "155718.455000",
          "155721.065000",
          "155723.677500",
          "155726.287500",
          "155728.897500",
          "155731.507500",
          "155734.117500",
          "155736.730000",
          "155739.340000",
          "155741.950000",
          "155744.560000",
          "155747.170000",
          "155749.780000",
          "155752.392500",
          "155755.002500",
          "155757.612500",
          "155800.222500",
          "155802.832500",
          "155805.445000",
          "155808.055000",
          "155810.665000",
          "155813.275000",
          "155815.885000",
          "155818.495000",
          "155821.107500",
          "155823.717500",
          "155826.327500",
          "155828.937500",
          "155831.547500",
          "155834.157500",
          "155836.770000",
          "155839.380000",
          "155841.990000",
          "155844.600000",
          "155847.210000",
          "155849.822500",
          "155852.432500",
          "155855.042500",
          "155857.652500",
          "155900.262500",
          "155902.872500",
          "155905.485000",
          "155908.095000",
          "155910.705000",
          "155913.315000",
          "155915.925000",
          "155918.535000",
          "155921.147500",
          "155923.757500",
          "155926.367500",
          "155928.977500",
          "155931.587500",
          "155934.200000",
          "155936.810000",
          "155939.420000",
          "155942.030000",
          "155944.640000",
          "155947.250000",
          "155949.862500",
          "155952.472500",
          "155955.082500",
          "155957.692500",
          "160000.302500",
          "160002.912500",
          "160005.525000",
          "160008.135000",
          "160010.745000",
          "160013.355000",
          "160015.965000",
          "160018.577500",
          "160021.187500",
          "160023.797500",
          "160026.407500",
          "160029.017500",
          "160031.627500",
          "160034.240000",
          "160036.850000",
          "160039.460000",
          "160042.070000",
          "160044.680000",
          "160047.290000",
          "160049.902500",
          "160052.512500",
          "160055.122500",
          "160057.732500",
          "160100.342500",
          "160102.955000",
          "160105.565000",
          "160108.175000",
          "160110.785000",
          "160113.395000",
          "160116.005000",
          "160118.617500",
          "160121.227500",
          "160123.837500",
          "160126.447500",
          "160129.057500",
          "160131.667500",
          "160134.280000",
          "160136.890000",
          "160139.500000",
          "160142.110000",
          "160144.720000",
          "160147.332500",
          "160149.942500",
          "160152.552500",
          "160155.162500",
          "160157.772500",
          "160200.382500",
          "160202.995000",
          "160205.605000",
          "160208.215000",
          "160210.825000",
          "160213.435000",
          "160216.045000",
          "160218.657500",
          "160221.267500",
          "160223.877500",
          "160226.487500",
          "160229.097500",
          "160231.710000",
          "160234.320000",
          "160236.930000",
          "160239.540000",
          "160242.150000",
          "160244.760000",
          "160247.372500",
          "160249.982500",
          "160252.592500",
          "160255.202500",
          "160257.812500",
          "160300.422500",
          "160303.035000",
          "160305.645000",
          "160308.255000",
          "160310.865000",
          "160313.475000",
          "160316.087500",
          "160318.697500",
          "160321.307500",
          "160323.917500",
          "160326.527500",
          "160329.137500",
          "160331.750000",
          "160334.360000",
          "160336.970000",
          "160339.580000",
          "160342.190000",
          "160344.800000",
          "160347.412500",
          "160350.022500",
          "160352.632500",
          "160355.242500",
          "160357.852500",
          "160400.465000",
          "160403.075000",
          "160405.685000",
          "160408.295000",
          "160410.905000",
          "160413.515000",
          "160416.127500",
          "160418.737500",
          "160421.347500",
          "160423.957500",
          "160426.567500",
          "160429.177500",
          "160431.790000",
          "160434.400000",
          "160437.010000",
          "160439.620000",
          "160442.230000",
          "160444.842500",
          "160447.452500"
        ],
        "ContentTime": [
          "155624.765000",
          "155624.765000",
          "155624.765000",
          "155624.781000",
          "155624.781000",
          "155624.781000",
          "155624.781000",
          "155624.796000",
          "155624.796000",
          "155624.796000",
          "155624.796000",
          "155624.796000",
          "155624.796000",
          "155624.796000",
          "155624.812000",
          "155624.812000",
          "155624.812000",
          "155624.812000",
          "155624.812000",
          "155624.812000",
          "155624.812000",
          "155644.765000",
          "155644.765000",
          "155644.765000",
          "155644.765000",
          "155644.765000",
          "155644.765000",
          "155644.781000",
          "155644.781000",
          "155744.765000",
          "155744.765000",
          "155744.765000",
          "155744.765000",
          "155744.765000",
          "155744.765000",
          "155744.765000",
          "155744.781000",
          "155744.781000",
          "155744.781000",
          "155744.781000",
          "155744.796000",
          "155744.796000",
          "155744.796000",
          "155744.796000",
          "155744.796000",
          "155744.796000",
          "155744.796000",
          "155744.796000",
          "155744.812000",
          "155744.812000",
          "155744.812000",
          "155744.812000",
          "155844.765000",
          "155844.765000",
          "155844.765000",
          "155844.765000",
          "155844.781000",
          "155844.781000",
          "155844.796000",
          "155844.796000",
          "155844.796000",
          "155844.796000",
          "155844.796000",
          "155844.796000",
          "155844.796000",
          "155844.796000",
          "155844.812000",
          "155844.812000",
          "155844.812000",
          "155844.812000",
          "155844.812000",
          "155844.812000",
          "155844.812000",
          "155844.828000",
          "155844.828000",
          "155944.765000",
          "155944.765000",
          "155944.765000",
          "155944.765000",
          "155944.781000",
          "155944.781000",
          "155944.781000",
          "155944.781000",
          "155944.796000",
          "155944.796000",
          "155944.796000",
          "155944.796000",
          "155944.796000",
          "155944.812000",
          "155944.812000",
          "155944.812000",
          "155944.812000",
          "155944.812000",
          "155944.812000",
          "155944.812000",
          "155944.828000",
          "155944.828000",
          "155944.828000",
          "160044.765000",
          "160044.765000",
          "160044.765000",
          "160044.765000",
          "160044.781000",
          "160044.781000",
          "160044.781000",
          "160044.781000",
          "160044.781000",
          "160044.781000",
          "160044.781000",
          "160044.781000",
          "160044.796000",
          "160044.796000",
          "160044.796000",
          "160044.796000",
          "160044.796000",
          "160044.796000",
          "160044.796000",
          "160044.812000",
          "160044.812000",
          "160044.812000",
          "160044.812000",
          "160144.765000",
          "160144.765000",
          "160144.765000",
          "160144.765000",
          "160144.765000",
          "160144.765000",
          "160144.765000",
          "160144.781000",
          "160144.781000",
          "160144.781000",
          "160144.781000",
          "160144.781000",
          "160144.781000",
          "160144.781000",
          "160144.796000",
          "160144.796000",
          "160144.796000",
          "160144.796000",
          "160144.796000",
          "160144.796000",
          "160144.796000",
          "160144.812000",
          "160144.812000",
          "160244.765000",
          "160244.765000",
          "160244.765000",
          "160244.765000",
          "160244.765000",
          "160244.781000",
          "160244.781000",
          "160244.781000",
          "160244.781000",
          "160244.781000",
          "160244.781000",
          "160244.796000",
          "160244.796000",
          "160244.796000",
          "160244.796000",
          "160244.796000",
          "160244.796000",
          "160244.796000",
          "160244.796000",
          "160244.812000",
          "160244.812000",
          "160244.812000",
          "160244.812000",
          "160244.812000",
          "160344.765000",
          "160344.765000",
          "160344.765000",
          "160344.765000",
          "160344.765000",
          "160344.765000",
          "160344.765000",
          "160344.781000",
          "160344.781000",
          "160344.781000",
          "160344.781000",
          "160344.781000",
          "160344.781000",
          "160344.781000",
          "160344.781000",
          "160344.796000",
          "160344.796000",
          "160344.796000",
          "160344.796000",
          "160344.796000",
          "160344.796000",
          "160344.796000",
          "160344.796000",
          "160444.765000",
          "160444.765000",
          "160444.765000",
          "160444.781000",
          "160444.781000",
          "160444.781000",
          "160444.781000",
          "160444.781000",
          "160444.781000",
          "160444.781000",
          "160444.796000",
          "160444.796000",
          "160444.796000",
          "160444.796000",
          "160444.796000",
          "160444.796000",
          "160444.812000",
          "160444.812000",
          "160444.812000",
          "160444.812000",
          "160444.812000",
          "160444.812000",
          "160444.812000",
          "160454.375000",
          "160454.375000"
        ],
        "InstanceCreationTime": [
          "155624.765000",
          "155624.765000",
          "155624.765000",
          "155624.781000",
          "155624.781000",
          "155624.781000",
          "155624.781000",
          "155624.796000",
          "155624.796000",
          "155624.796000",
          "155624.796000",
          "155624.796000",
          "155624.796000",
          "155624.796000",
          "155624.812000",
          "155624.812000",
          "155624.812000",
          "155624.812000",
          "155624.812000",
          "155624.812000",
          "155624.812000",
          "155644.765000",
          "155644.765000",
          "155644.765000",
          "155644.765000",
          "155644.765000",
          "155644.765000",
          "155644.781000",
          "155644.781000",
          "155744.765000",
          "155744.765000",
          "155744.765000",
          "155744.765000",
          "155744.765000",
          "155744.765000",
          "155744.765000",
          "155744.781000",
          "155744.781000",
          "155744.781000",
          "155744.781000",
          "155744.796000",
          "155744.796000",
          "155744.796000",
          "155744.796000",
          "155744.796000",
          "155744.796000",
          "155744.796000",
          "155744.796000",
          "155744.812000",
          "155744.812000",
          "155744.812000",
          "155744.812000",
          "155844.765000",
          "155844.765000",
          "155844.765000",
          "155844.765000",
          "155844.781000",
          "155844.781000",
          "155844.796000",
          "155844.796000",
          "155844.796000",
          "155844.796000",
          "155844.796000",
          "155844.796000",
          "155844.796000",
          "155844.796000",
          "155844.812000",
          "155844.812000",
          "155844.812000",
          "155844.812000",
          "155844.812000",
          "155844.812000",
          "155844.812000",
          "155844.828000",
          "155844.828000",
          "155944.765000",
          "155944.765000",
          "155944.765000",
          "155944.765000",
          "155944.781000",
          "155944.781000",
          "155944.781000",
          "155944.781000",
          "155944.796000",
          "155944.796000",
          "155944.796000",
          "155944.796000",
          "155944.796000",
          "155944.812000",
          "155944.812000",
          "155944.812000",
          "155944.812000",
          "155944.812000",
          "155944.812000",
          "155944.812000",
          "155944.828000",
          "155944.828000",
          "155944.828000",
          "160044.765000",
          "160044.765000",
          "160044.765000",
          "160044.765000",
          "160044.781000",
          "160044.781000",
          "160044.781000",
          "160044.781000",
          "160044.781000",
          "160044.781000",
          "160044.781000",
          "160044.781000",
          "160044.796000",
          "160044.796000",
          "160044.796000",
          "160044.796000",
          "160044.796000",
          "160044.796000",
          "160044.796000",
          "160044.812000",
          "160044.812000",
          "160044.812000",
          "160044.812000",
          "160144.765000",
          "160144.765000",
          "160144.765000",
          "160144.765000",
          "160144.765000",
          "160144.765000",
          "160144.765000",
          "160144.781000",
          "160144.781000",
          "160144.781000",
          "160144.781000",
          "160144.781000",
          "160144.781000",
          "160144.781000",
          "160144.796000",
          "160144.796000",
          "160144.796000",
          "160144.796000",
          "160144.796000",
          "160144.796000",
          "160144.796000",
          "160144.812000",
          "160144.812000",
          "160244.765000",
          "160244.765000",
          "160244.765000",
          "160244.765000",
          "160244.765000",
          "160244.781000",
          "160244.781000",
          "160244.781000",
          "160244.781000",
          "160244.781000",
          "160244.781000",
          "160244.796000",
          "160244.796000",
          "160244.796000",
          "160244.796000",
          "160244.796000",
          "160244.796000",
          "160244.796000",
          "160244.796000",
          "160244.812000",
          "160244.812000",
          "160244.812000",
          "160244.812000",
          "160244.812000",
          "160344.765000",
          "160344.765000",
          "160344.765000",
          "160344.765000",
          "160344.765000",
          "160344.765000",
          "160344.765000",
          "160344.781000",
          "160344.781000",
          "160344.781000",
          "160344.781000",
          "160344.781000",
          "160344.781000",
          "160344.781000",
          "160344.781000",
          "160344.796000",
          "160344.796000",
          "160344.796000",
          "160344.796000",
          "160344.796000",
          "160344.796000",
          "160344.796000",
          "160344.796000",
          "160444.765000",
          "160444.765000",
          "160444.765000",
          "160444.781000",
          "160444.781000",
          "160444.781000",
          "160444.781000",
          "160444.781000",
          "160444.781000",
          "160444.781000",
          "160444.796000",
          "160444.796000",
          "160444.796000",
          "160444.796000",
          "160444.796000",
          "160444.796000",
          "160444.812000",
          "160444.812000",
          "160444.812000",
          "160444.812000",
          "160444.812000",
          "160444.812000",
          "160444.812000",
          "160454.375000",
          "160454.375000"
        ],
        "InstanceNumber": [
          1,
          2,
          3,
          4,
          5,
          6,
          7,
          8,
          9,
          10,
          11,
          12,
          13,
          14,
          15,
          16,
          17,
          18,
          19,
          20,
          21,
          22,
          23,
          24,
          25,
          26,
          27,
          28,
          29,
          30,
          31,
          32,
          33,
          34,
          35,
          36,
          37,
          38,
          39,
          40,
          41,
          42,
          43,
          44,
          45,
          46,
          47,
          48,
          49,
          50,
          51,
          52,
          53,
          54,
          55,
          56,
          57,
          58,
          59,
          60,
          61,
          62,
          63,
          64,
          65,
          66,
          67,
          68,
          69,
          70,
          71,
          72,
          73,
          74,
          75,
          76,
          77,
          78,
          79,
          80,
          81,
          82,
          83,
          84,
          85,
          86,
          87,
          88,
          89,
          90,
          91,
          92,
          93,
          94,
          95,
          96,
          97,
          98,
          99,
          100,
          101,
          102,
          103,
          104,
          105,
          106,
          107,
          108,
          109,
          110,
          111,
          112,
          113,
          114,
          115,
          116,
          117,
          118,
          119,
          120,
          121,
          122,
          123,
          124,
          125,
          126,
          127,
          128,
          129,
          130,
          131,
          132,
          133,
          134,
          135,
          136,
          137,
          138,
          139,
          140,
          141,
          142,
          143,
          144,
          145,
          146,
          147,
          148,
          149,
          150,
          151,
          152,
          153,
          154,
          155,
          156,
          157,
          158,
          159,
          160,
          161,
          162,
          163,
          164,
          165,
          166,
          167,
          168,
          169,
