{
  "aor": 0.006898888888888888,
  "aqi": 0.01756355324074074,
  "bids_meta": {
    "AcquisitionMatrixPE": 188,
    "AcquisitionNumber": 1,
    "AcquisitionTime": "14:50:58.215000",
    "BandwidthPerPixelPhaseEncode": 19.46,
    "BaseResolution": 188,
    "CogAtlasID": "TODO",
    "ConversionSoftware": "dcm2niix",
    "ConversionSoftwareVersion": "v1.0.20180606 GCC4.8.5",
    "DelayTime": 1.2,
    "DerivedVendorReportedEchoSpacing": 0.000820013,
    "DeviceSerialNumber": "18930",
    "DwellTime": 1.9e-06,
    "EchoTime": 0.02,
    "EffectiveEchoSpacing": 0.000273338,
    "FlipAngle": 80,
    "ImageComments": "Unaliased_MB2_PE2",
    "ImageOrientationPatientDICOM": [
      0.997468,
      0.049947,
      -0.0506264,
      -0.0621446,
      0.266011,
      -0.961965
    ],
    "ImageType": [
      "ORIGINAL",
      "PRIMARY",
      "M",
      "MB",
      "ND",
      "MOSAIC"
    ],
    "InPlanePhaseEncodingDirectionDICOM": "COL",
    "InstitutionAddress": "Oxfordlaan_55_Maastricht_Limburg_NL_6229_EV",
    "InstitutionName": "Scannexus",
    "InstitutionalDepartmentName": "MRI_7T",
    "MRAcquisitionType": "2D",
    "MagneticFieldStrength": 6.98,
    "Manufacturer": "Siemens",
    "ManufacturersModelName": "Investigational_Device_7T",
    "Modality": "MR",
    "MultibandAccelerationFactor": 2,
    "ParallelReductionFactorInPlane": 3,
    "PartialFourier": 0.75,
    "PatientPosition": "HFS",
    "PercentPhaseFOV": 100,
    "PhaseEncodingDirection": "j",
    "PhaseEncodingSteps": 141,
    "PhaseResolution": 1,
    "PixelBandwidth": 1400,
    "ProcedureStepDescription": "FeDem_Faruk",
    "ProtocolName": "cmrr_mbep2d_bold_AP_run9",
    "PulseSequenceDetails": "%CustomerSeq%_cmrr_mbep2d_bold",
    "ReceiveCoilName": "32Ch_Head_7T",
    "ReconMatrixPE": 188,
    "RepetitionTime": 2.6,
    "SAR": 0.0934162,
    "ScanOptions": "PFP_FS",
    "ScanningSequence": "EP",
    "SequenceName": "epfid2d1_188",
    "SequenceVariant": "SK_SS",
    "SeriesDescription": "cmrr_mbep2d_bold_AP_run9",
    "SeriesNumber": 10,
    "ShimSetting": [
      94,
      -225,
      493,
      452,
      94,
      -189,
      -57,
      166
    ],
    "SliceThickness": 1.1,
    "SliceTiming": [
      0,
      0.7325,
      0.06,
      0.795,
      0.1225,
      0.855,
      0.1825,
      0.915,
      0.245,
      0.9775,
      0.305,
      1.0375,
      0.365,
      1.1,
      0.4275,
      1.16,
      0.4875,
      1.2225,
      0.55,
      1.2825,
      0.61,
      1.345,
      0.6725,
      0,
      0.7325,
      0.06,
      0.795,
      0.1225,
      0.855,
      0.1825,
      0.915,
      0.245,
      0.9775,
      0.305,
      1.0375,
      0.365,
      1.1,
      0.4275,
      1.16,
      0.4875,
      1.2225,
      0.55,
      1.2825,
      0.61,
      1.345,
      0.6725
    ],
    "SoftwareVersions": "syngo_MR_B17",
    "SpacingBetweenSlices": 1.1,
    "StationName": "MRC18930",
    "TaskName": "auditory",
    "TotalReadoutTime": 0.0511141,
    "TxRefAmp": 245,
    "dataset": "ds001942",
    "dcmmeta_affine": [
      [
        -1.0929702520370483,
        -0.0680946335196495,
        0.03803808614611626,
        108.62665557861328
      ],
      [
        -0.05472918599843979,
        0.29148048162460327,
        -1.058942437171936,
        18.910226821899414
      ],
      [
        -0.05547358840703964,
        1.0540677309036255,
        0.29528582096099854,
        -109.4985122680664
      ],
      [
        0.0,
        0.0,
        0.0,
        1.0
      ]
    ],
    "dcmmeta_reorient_transform": [
      [
        0.0,
        -1.0,
        0.0,
        187.0
      ],
      [
        1.0,
        0.0,
        0.0,
        0.0
      ],
      [
        0.0,
        0.0,
        1.0,
        0.0
      ],
      [
        0.0,
        0.0,
        0.0,
        1.0
      ]
    ],
    "dcmmeta_shape": [
      188,
      188,
      46,
      216
    ],
    "dcmmeta_slice_dim": 2,
    "dcmmeta_version": 0.6,
    "global": {
      "const": {
        "AcquisitionMatrix": [
          188,
          0,
          0,
          188
        ],
        "AngioFlag": "N",
        "BitsAllocated": 16,
        "BitsStored": 12,
        "Columns": 1316,
        "EchoNumbers": 1,
        "EchoTime": 20.0,
        "EchoTrainLength": 1,
        "FlipAngle": 80.0,
        "HighBit": 11,
        "ImageOrientationPatient": [
          0.99746792660154,
          0.04994702250317,
          -0.0506263799248,
          -0.0621446160462,
          0.26601129568337,
          -0.9619646756848
        ],
        "ImagePositionPatient": [
          -673.92279089922,
          -268.679324741,
          713.39344885895
        ],
        "ImageType": [
          "ORIGINAL",
          "PRIMARY",
          "M",
          "MB",
          "ND",
          "MOSAIC"
        ],
        "ImagedNucleus": "1H",
        "ImagingFrequency": 297.20543,
        "InPlanePhaseEncodingDirection": "COL",
        "LargestImagePixelValue": 4095,
        "MRAcquisitionType": "2D",
        "MagneticFieldStrength": 6.98,
        "Manufacturer": "SIEMENS",
        "ManufacturerModelName": "Investigational_Device_7T",
        "Modality": "MR",
        "NumberOfAverages": 1.0,
        "NumberOfPhaseEncodingSteps": 141,
        "PercentPhaseFieldOfView": 100.0,
        "PercentSampling": 100.0,
        "PerformedProcedureStepStartTime": "141952.000000",
        "PhotometricInterpretation": "MONOCHROME2",
        "PixelBandwidth": 1400.0,
        "PixelRepresentation": 0,
        "PixelSpacing": [
          1.0957447290421,
          1.0957447290421
        ],
        "ProtocolName": "cmrr_mbep2d_bold_AP_run9",
        "RepetitionTime": 2600.0,
        "Rows": 1316,
        "SAR": 0.09341623610458,
        "SamplesPerPixel": 1,
        "ScanOptions": [
          "PFP",
          "FS"
        ],
        "ScanningSequence": "EP",
        "SequenceName": "epfid2d1_188",
        "SequenceVariant": [
          "SK",
          "SS"
        ],
        "SeriesDescription": "cmrr_mbep2d_bold_AP_run9",
        "SeriesNumber": 10,
        "SeriesTime": "145204.765000",
        "SliceLocation": -43.842049741321,
        "SliceThickness": 1.1000000238419,
        "SmallestImagePixelValue": 0,
        "SoftwareVersions": "syngo MR B17",
        "SpacingBetweenSlices": 1.0999998699709,
        "SpecificCharacterSet": "ISO_IR 100",
        "StudyID": "1",
        "StudyTime": "141951.937000",
        "TransmitCoilName": "32Ch_Head_7T",
        "VariableFlipAngleFlag": "N",
        "WindowCenterWidthExplanation": "Algo1",
        "dBdt": 0.0
      },
      "slices": {}
    },
    "modality": "bold",
    "run_id": 1,
    "session_id": "SES05",
    "subject_id": "S11",
    "task_id": "auditory",
    "time": {
      "samples": {
        "AcquisitionNumber": [
          1,
          2,
          3,
          4,
          5,
          6,
          7,
          8,
          9,
          10,
          11,
          12,
          13,
          14,
          15,
          16,
          17,
          18,
          19,
          20,
          21,
          22,
          23,
          24,
          25,
          26,
          27,
          28,
          29,
          30,
          31,
          32,
          33,
          34,
          35,
          36,
          37,
          38,
          39,
          40,
          41,
          42,
          43,
          44,
          45,
          46,
          47,
          48,
          49,
          50,
          51,
          52,
          53,
          54,
          55,
          56,
          57,
          58,
          59,
          60,
          61,
          62,
          63,
          64,
          65,
          66,
          67,
          68,
          69,
          70,
          71,
          72,
          73,
          74,
          75,
          76,
          77,
          78,
          79,
          80,
          81,
          82,
          83,
          84,
          85,
          86,
          87,
          88,
          89,
          90,
          91,
          92,
          93,
          94,
          95,
          96,
          97,
          98,
          99,
          100,
          101,
          102,
          103,
          104,
          105,
          106,
          107,
          108,
          109,
          110,
          111,
          112,
          113,
          114,
          115,
          116,
          117,
          118,
          119,
          120,
          121,
          122,
          123,
          124,
          125,
          126,
          127,
          128,
          129,
          130,
          131,
          132,
          133,
          134,
          135,
          136,
          137,
          138,
          139,
          140,
          141,
          142,
          143,
          144,
          145,
          146,
          147,
          148,
          149,
          150,
          151,
          152,
          153,
          154,
          155,
          156,
          157,
          158,
          159,
          160,
          161,
          162,
          163,
          164,
          165,
          166,
          167,
          168,
          169,
          170,
          171,
          172,
          173,
          174,
          175,
          176,
          177,
          178,
          179,
          180,
          181,
          182,
          183,
          184,
          185,
          186,
          187,
          188,
          189,
          190,
          191,
          192,
          193,
          194,
          195,
          196,
          197,
          198,
          199,
          200,
          201,
          202,
          203,
          204,
          205,
          206,
          207,
          208,
          209,
          210,
          211,
          212,
          213,
          214,
          215,
          216
        ],
        "AcquisitionTime": [
          "145058.215000",
          "145100.825000",
          "145103.435000",
          "145106.045000",
          "145108.657500",
          "145111.267500",
          "145113.877500",
          "145116.487500",
          "145119.097500",
          "145121.707500",
          "145124.320000",
          "145126.930000",
          "145129.540000",
          "145132.150000",
          "145134.760000",
          "145137.370000",
          "145139.982500",
          "145142.592500",
          "145145.202500",
          "145147.812500",
          "145150.422500",
          "145153.035000",
          "145155.645000",
          "145158.255000",
          "145200.865000",
          "145203.475000",
          "145206.085000",
          "145208.697500",
          "145211.307500",
          "145213.917500",
          "145216.527500",
          "145219.137500",
          "145221.747500",
          "145224.360000",
          "145226.970000",
          "145229.580000",
          "145232.190000",
          "145234.800000",
          "145237.412500",
          "145240.022500",
          "145242.632500",
          "145245.242500",
          "145247.852500",
          "145250.462500",
          "145253.075000",
          "145255.685000",
          "145258.295000",
          "145300.905000",
          "145303.515000",
          "145306.127500",
          "145308.737500",
          "145311.347500",
          "145313.957500",
          "145316.567500",
          "145319.177500",
          "145321.790000",
          "145324.400000",
          "145327.010000",
          "145329.620000",
          "145332.230000",
          "145334.840000",
          "145337.452500",
          "145340.062500",
          "145342.672500",
          "145345.282500",
          "145347.892500",
          "145350.505000",
          "145353.115000",
          "145355.725000",
          "145358.335000",
          "145400.945000",
          "145403.555000",
          "145406.167500",
          "145408.777500",
          "145411.387500",
          "145413.997500",
          "145416.607500",
          "145419.217500",
          "145421.830000",
          "145424.440000",
          "145427.050000",
          "145429.660000",
          "145432.270000",
          "145434.882500",
          "145437.492500",
          "145440.102500",
          "145442.712500",
          "145445.322500",
          "145447.932500",
          "145450.545000",
          "145453.155000",
          "145455.765000",
          "145458.375000",
          "145500.985000",
          "145503.595000",
          "145506.207500",
          "145508.817500",
          "145511.427500",
          "145514.037500",
          "145516.647500",
          "145519.260000",
          "145521.870000",
          "145524.480000",
          "145527.090000",
          "145529.700000",
          "145532.310000",
          "145534.922500",
          "145537.532500",
          "145540.142500",
          "145542.752500",
          "145545.362500",
          "145547.972500",
          "145550.585000",
          "145553.195000",
          "145555.805000",
          "145558.415000",
          "145601.025000",
          "145603.637500",
          "145606.247500",
          "145608.857500",
          "145611.467500",
          "145614.077500",
          "145616.687500",
          "145619.300000",
          "145621.910000",
          "145624.520000",
          "145627.130000",
          "145629.740000",
          "145632.350000",
          "145634.962500",
          "145637.572500",
          "145640.182500",
          "145642.792500",
          "145645.402500",
          "145648.015000",
          "145650.625000",
          "145653.235000",
          "145655.845000",
          "145658.455000",
          "145701.065000",
          "145703.677500",
          "145706.287500",
          "145708.897500",
          "145711.507500",
          "145714.117500",
          "145716.727500",
          "145719.340000",
          "145721.950000",
          "145724.560000",
          "145727.170000",
          "145729.780000",
          "145732.392500",
          "145735.002500",
          "145737.612500",
          "145740.222500",
          "145742.832500",
          "145745.442500",
          "145748.055000",
          "145750.665000",
          "145753.275000",
          "145755.885000",
          "145758.495000",
          "145801.105000",
          "145803.717500",
          "145806.327500",
          "145808.937500",
          "145811.547500",
          "145814.157500",
          "145816.770000",
          "145819.380000",
          "145821.990000",
          "145824.600000",
          "145827.210000",
          "145829.820000",
          "145832.432500",
          "145835.042500",
          "145837.652500",
          "145840.262500",
          "145842.872500",
          "145845.482500",
          "145848.095000",
          "145850.705000",
          "145853.315000",
          "145855.925000",
          "145858.535000",
          "145901.147500",
          "145903.757500",
          "145906.367500",
          "145908.977500",
          "145911.587500",
          "145914.197500",
          "145916.810000",
          "145919.420000",
          "145922.030000",
          "145924.640000",
          "145927.250000",
          "145929.860000",
          "145932.472500",
          "145935.082500",
          "145937.692500",
          "145940.302500",
          "145942.912500",
          "145945.525000",
          "145948.135000",
          "145950.745000",
          "145953.355000",
          "145955.965000",
          "145958.575000",
          "150001.187500",
          "150003.797500",
          "150006.407500",
          "150009.017500",
          "150011.627500",
          "150014.237500",
          "150016.850000",
          "150019.460000"
        ],
        "ContentTime": [
          "145204.765000",
          "145204.765000",
          "145204.765000",
          "145204.781000",
          "145204.781000",
          "145204.781000",
          "145204.781000",
          "145204.781000",
          "145204.781000",
          "145204.781000",
          "145204.781000",
          "145204.796000",
          "145204.796000",
          "145204.796000",
          "145204.796000",
          "145204.812000",
          "145204.812000",
          "145204.812000",
          "145204.812000",
          "145204.812000",
          "145204.812000",
          "145204.812000",
          "145204.828000",
          "145204.828000",
          "145304.765000",
          "145304.765000",
          "145304.765000",
          "145304.765000",
          "145304.765000",
          "145304.781000",
          "145304.781000",
          "145304.781000",
          "145304.781000",
          "145304.781000",
          "145304.781000",
          "145304.781000",
          "145304.796000",
          "145304.796000",
          "145304.796000",
          "145304.796000",
          "145304.796000",
          "145304.796000",
          "145304.796000",
          "145304.796000",
          "145304.812000",
          "145304.812000",
          "145304.812000",
          "145304.812000",
          "145404.765000",
          "145404.765000",
          "145404.765000",
          "145404.765000",
          "145404.765000",
          "145404.765000",
          "145404.765000",
          "145404.781000",
          "145404.781000",
          "145404.781000",
          "145404.781000",
          "145404.796000",
          "145404.796000",
          "145404.796000",
          "145404.796000",
          "145404.796000",
          "145404.796000",
          "145404.796000",
          "145404.796000",
          "145404.812000",
          "145404.812000",
          "145404.812000",
          "145404.812000",
          "145504.765000",
          "145504.765000",
          "145504.765000",
          "145504.765000",
          "145504.765000",
          "145504.765000",
          "145504.781000",
          "145504.781000",
          "145504.781000",
          "145504.796000",
          "145504.796000",
          "145504.796000",
          "145504.796000",
          "145504.796000",
          "145504.796000",
          "145504.812000",
          "145504.812000",
          "145504.812000",
          "145504.812000",
          "145504.812000",
          "145504.812000",
          "145504.812000",
          "145504.828000",
          "145604.765000",
          "145604.765000",
          "145604.765000",
          "145604.765000",
          "145604.765000",
          "145604.765000",
          "145604.781000",
          "145604.781000",
          "145604.781000",
          "145604.781000",
          "145604.781000",
          "145604.781000",
          "145604.781000",
          "145604.781000",
          "145604.796000",
          "145604.796000",
          "145604.796000",
          "145604.796000",
          "145604.796000",
          "145604.796000",
          "145604.796000",
          "145604.796000",
          "145604.812000",
          "145644.765000",
          "145644.765000",
          "145644.765000",
          "145644.765000",
          "145644.765000",
          "145644.765000",
          "145644.781000",
          "145644.781000",
          "145644.781000",
          "145644.781000",
          "145644.781000",
          "145644.781000",
          "145644.781000",
          "145644.781000",
          "145644.796000",
          "145744.765000",
          "145744.765000",
          "145744.765000",
          "145744.765000",
          "145744.765000",
          "145744.781000",
          "145744.781000",
          "145744.781000",
          "145744.781000",
          "145744.781000",
          "145744.781000",
          "145744.781000",
          "145744.796000",
          "145744.796000",
          "145744.796000",
          "145744.796000",
          "145744.796000",
          "145744.796000",
          "145744.796000",
          "145744.812000",
          "145744.812000",
          "145744.812000",
          "145744.812000",
          "145844.765000",
          "145844.765000",
          "145844.765000",
          "145844.765000",
          "145844.765000",
          "145844.765000",
          "145844.765000",
          "145844.781000",
          "145844.781000",
          "145844.781000",
          "145844.781000",
          "145844.781000",
          "145844.781000",
          "145844.781000",
          "145844.796000",
          "145844.796000",
          "145844.796000",
          "145844.796000",
          "145844.796000",
          "145844.796000",
          "145844.796000",
          "145844.796000",
          "145844.812000",
          "145944.765000",
          "145944.765000",
          "145944.765000",
          "145944.765000",
          "145944.765000",
          "145944.765000",
          "145944.765000",
          "145944.781000",
          "145944.781000",
          "145944.781000",
          "145944.781000",
          "145944.781000",
          "145944.781000",
          "145944.781000",
          "145944.796000",
          "145944.796000",
          "145944.796000",
          "145944.796000",
          "145944.796000",
          "145944.796000",
          "145944.796000",
          "145944.796000",
          "145944.812000",
          "150026.390000",
          "150026.390000",
          "150026.406000",
          "150026.406000",
          "150026.406000",
          "150026.406000",
          "150026.406000",
          "150026.406000",
          "150026.406000",
          "150026.406000",
          "150026.421000",
          "150026.421000",
          "150026.421000",
          "150026.421000",
          "150026.421000"
        ],
        "InstanceCreationTime": [
          "145204.765000",
          "145204.765000",
          "145204.765000",
          "145204.781000",
          "145204.781000",
          "145204.781000",
          "145204.781000",
          "145204.781000",
          "145204.781000",
          "145204.781000",
          "145204.781000",
          "145204.796000",
          "145204.796000",
          "145204.796000",
          "145204.796000",
          "145204.812000",
          "145204.812000",
          "145204.812000",
          "145204.812000",
          "145204.812000",
          "145204.812000",
          "145204.812000",
          "145204.828000",
          "145204.828000",
          "145304.765000",
          "145304.765000",
          "145304.765000",
          "145304.765000",
          "145304.765000",
          "145304.781000",
          "145304.781000",
          "145304.781000",
          "145304.781000",
          "145304.781000",
          "145304.781000",
          "145304.781000",
          "145304.796000",
          "145304.796000",
          "145304.796000",
          "145304.796000",
          "145304.796000",
          "145304.796000",
          "145304.796000",
          "145304.796000",
          "145304.812000",
          "145304.812000",
          "145304.812000",
          "145304.812000",
          "145404.765000",
          "145404.765000",
          "145404.765000",
          "145404.765000",
          "145404.765000",
          "145404.765000",
          "145404.765000",
          "145404.781000",
          "145404.781000",
          "145404.781000",
          "145404.781000",
          "145404.796000",
          "145404.796000",
          "145404.796000",
          "145404.796000",
          "145404.796000",
          "145404.796000",
          "145404.796000",
          "145404.796000",
          "145404.812000",
          "145404.812000",
          "145404.812000",
          "145404.812000",
          "145504.765000",
          "145504.765000",
          "145504.765000",
          "145504.765000",
          "145504.765000",
          "145504.765000",
          "145504.781000",
          "145504.781000",
          "145504.781000",
          "145504.796000",
          "145504.796000",
          "145504.796000",
          "145504.796000",
          "145504.796000",
          "145504.796000",
          "145504.812000",
          "145504.812000",
          "145504.812000",
          "145504.812000",
          "145504.812000",
          "145504.812000",
          "145504.812000",
          "145504.828000",
          "145604.765000",
          "145604.765000",
          "145604.765000",
          "145604.765000",
          "145604.765000",
          "145604.765000",
          "145604.781000",
          "145604.781000",
          "145604.781000",
          "145604.781000",
          "145604.781000",
          "145604.781000",
          "145604.781000",
          "145604.781000",
          "145604.796000",
          "145604.796000",
          "145604.796000",
          "145604.796000",
          "145604.796000",
          "145604.796000",
          "145604.796000",
          "145604.796000",
          "145604.812000",
          "145644.765000",
          "145644.765000",
          "145644.765000",
          "145644.765000",
          "145644.765000",
          "145644.765000",
          "145644.781000",
          "145644.781000",
          "145644.781000",
          "145644.781000",
          "145644.781000",
          "145644.781000",
          "145644.781000",
          "145644.781000",
          "145644.796000",
          "145744.765000",
          "145744.765000",
          "145744.765000",
          "145744.765000",
          "145744.765000",
          "145744.781000",
          "145744.781000",
          "145744.781000",
          "145744.781000",
          "145744.781000",
          "145744.781000",
          "145744.781000",
          "145744.796000",
          "145744.796000",
          "145744.796000",
          "145744.796000",
          "145744.796000",
          "145744.796000",
          "145744.796000",
          "145744.812000",
          "145744.812000",
          "145744.812000",
          "145744.812000",
          "145844.765000",
          "145844.765000",
          "145844.765000",
          "145844.765000",
          "145844.765000",
          "145844.765000",
          "145844.765000",
          "145844.781000",
          "145844.781000",
          "145844.781000",
          "145844.781000",
          "145844.781000",
          "145844.781000",
          "145844.781000",
          "145844.796000",
          "145844.796000",
          "145844.796000",
          "145844.796000",
          "145844.796000",
          "145844.796000",
          "145844.796000",
          "145844.796000",
          "145844.812000",
          "145944.765000",
          "145944.765000",
          "145944.765000",
          "145944.765000",
          "145944.765000",
          "145944.765000",
          "145944.765000",
          "145944.781000",
          "145944.781000",
          "145944.781000",
          "145944.781000",
          "145944.781000",
          "145944.781000",
          "145944.781000",
          "145944.796000",
          "145944.796000",
          "145944.796000",
          "145944.796000",
          "145944.796000",
          "145944.796000",
          "145944.796000",
          "145944.796000",
          "145944.812000",
          "150026.390000",
          "150026.390000",
          "150026.406000",
          "150026.406000",
          "150026.406000",
          "150026.406000",
          "150026.406000",
          "150026.406000",
          "150026.406000",
          "150026.406000",
          "150026.421000",
          "150026.421000",
          "150026.421000",
          "150026.421000",
          "150026.421000"
        ],
        "InstanceNumber": [
          1,
          2,
          3,
          4,
          5,
          6,
          7,
          8,
          9,
          10,
          11,
          12,
          13,
          14,
          15,
          16,
          17,
          18,
          19,
          20,
          21,
          22,
          23,
          24,
          25,
          26,
          27,
          28,
          29,
          30,
          31,
          32,
          33,
          34,
          35,
          36,
          37,
          38,
          39,
          40,
          41,
          42,
          43,
          44,
          45,
          46,
          47,
          48,
          49,
          50,
          51,
          52,
          53,
          54,
          55,
          56,
          57,
          58,
          59,
          60,
          61,
          62,
          63,
          64,
          65,
          66,
          67,
          68,
          69,
          70,
          71,
          72,
          73,
          74,
          75,
          76,
          77,
          78,
          79,
          80,
          81,
          82,
          83,
          84,
          85,
          86,
          87,
          88,
          89,
          90,
          91,
          92,
          93,
          94,
          95,
          96,
          97,
          98,
          99,
          100,
          101,
          102,
          103,
          104,
          105,
          106,
          107,
          108,
          109,
          110,
          111,
          112,
          113,
          114,
          115,
          116,
          117,
          118,
          119,
          120,
          121,
          122,
          123,
          124,
          125,
          126,
          127,
          128,
          129,
          130,
          131,
          132,
          133,
          134,
          135,
          136,
          137,
          138,
          139,
          140,
          141,
          142,
          143,
          144,
          145,
          146,
          147,
          148,
          149,
          150,
          151,
          152,
          153,
          154,
          155,
          156,
          157,
          158,
          159,
          160,
          161,
          162,
          163,
          164,
          165,
          166,
          167,
          168,
          169,
