{
  "aor": 0.0005543999999999999,
  "aqi": 0.010487292399999999,
  "bids_meta": {
    "AcquisitionMatrixPE": 188,
    "AcquisitionNumber": 1,
    "AcquisitionTime": "19:35:6.045000",
    "BandwidthPerPixelPhaseEncode": 19.46,
    "BaseResolution": 188,
    "ConversionSoftware": "dcm2niix",
    "ConversionSoftwareVersion": "v1.0.20180606 GCC4.8.5",
    "DelayTime": 1.2,
    "DerivedVendorReportedEchoSpacing": 0.000820013,
    "DeviceSerialNumber": "18930",
    "DwellTime": 1.9e-06,
    "EchoTime": 0.02,
    "EffectiveEchoSpacing": 0.000273338,
    "FlipAngle": 80,
    "ImageComments": "Unaliased_MB2_PE2",
    "ImageOrientationPatientDICOM": [
      0.999913,
      -0.0104875,
      0.00803496,
      0.0100333,
      0.207118,
      -0.978265
    ],
    "ImageType": [
      "ORIGINAL",
      "PRIMARY",
      "M",
      "MB",
      "ND",
      "MOSAIC"
    ],
    "InPlanePhaseEncodingDirectionDICOM": "COL",
    "InstitutionAddress": "Oxfordlaan_55_Maastricht_753AAF_Limburg_NL_6229_EV",
    "InstitutionName": "Scannexus",
    "InstitutionalDepartmentName": "MRI_7T",
    "MRAcquisitionType": "2D",
    "MagneticFieldStrength": 6.98,
    "Manufacturer": "Siemens",
    "ManufacturersModelName": "Investigational_Device_7T",
    "Modality": "MR",
    "MultibandAccelerationFactor": 2,
    "ParallelReductionFactorInPlane": 3,
    "PartialFourier": 0.75,
    "PatientPosition": "HFS",
    "PercentPhaseFOV": 100,
    "PhaseEncodingDirection": "j",
    "PhaseEncodingSteps": 141,
    "PhaseResolution": 1,
    "PixelBandwidth": 1400,
    "ProcedureStepDescription": "FeDem_Faruk",
    "ProtocolName": "cmrr_mbep2d_bold_AP_run12",
    "PulseSequenceDetails": "%CustomerSeq%_cmrr_mbep2d_bold",
    "ReceiveCoilName": "32Ch_Head_7T",
    "ReconMatrixPE": 188,
    "RepetitionTime": 2.6,
    "SAR": 0.0754929,
    "ScanOptions": "PFP_FS",
    "ScanningSequence": "EP",
    "SequenceName": "epfid2d1_188",
    "SequenceVariant": "SK_SS",
    "SeriesDescription": "cmrr_mbep2d_bold_AP_run12",
    "SeriesNumber": 25,
    "ShimSetting": [
      112,
      -93,
      409,
      471,
      -90,
      78,
      246,
      177
    ],
    "SliceThickness": 1.1,
    "SliceTiming": [
      0,
      0.7325,
      0.0625,
      0.795,
      0.1225,
      0.855,
      0.1825,
      0.9175,
      0.245,
      0.9775,
      0.305,
      1.04,
      0.3675,
      1.1,
      0.4275,
      1.1625,
      0.49,
      1.2225,
      0.55,
      1.2825,
      0.6125,
      1.345,
      0.6725,
      0,
      0.7325,
      0.0625,
      0.795,
      0.1225,
      0.855,
      0.1825,
      0.9175,
      0.245,
      0.9775,
      0.305,
      1.04,
      0.3675,
      1.1,
      0.4275,
      1.1625,
      0.49,
      1.2225,
      0.55,
      1.2825,
      0.6125,
      1.345,
      0.6725
    ],
    "SoftwareVersions": "syngo_MR_B17",
    "SpacingBetweenSlices": 1.1,
    "StationName": "MRC18930",
    "TaskName": "auditory",
    "TotalReadoutTime": 0.0511141,
    "TxRefAmp": 230,
    "dataset": "ds001942",
    "dcmmeta_affine": [
      [
        -1.0956491231918335,
        0.010993985459208488,
        -0.009454931132495403,
        102.07075500488281
      ],
      [
        0.011491656303405762,
        0.22694826126098633,
        -1.0760853290557861,
        23.640270233154297
      ],
      [
        0.008804263547062874,
        1.0719282627105713,
        0.2279253751039505,
        -120.88667297363281
      ],
      [
        0.0,
        0.0,
        0.0,
        1.0
      ]
    ],
    "dcmmeta_reorient_transform": [
      [
        0.0,
        -1.0,
        0.0,
        187.0
      ],
      [
        1.0,
        0.0,
        0.0,
        0.0
      ],
      [
        0.0,
        0.0,
        1.0,
        0.0
      ],
      [
        0.0,
        0.0,
        0.0,
        1.0
      ]
    ],
    "dcmmeta_shape": [
      188,
      188,
      46,
      150
    ],
    "dcmmeta_slice_dim": 2,
    "dcmmeta_version": 0.6,
    "global": {
      "const": {
        "AcquisitionMatrix": [
          188,
          0,
          0,
          188
        ],
        "AngioFlag": "N",
        "BitsAllocated": 16,
        "BitsStored": 12,
        "Columns": 1316,
        "EchoNumbers": 1,
        "EchoTime": 20.0,
        "EchoTrainLength": 1,
        "FlipAngle": 80.0,
        "HighBit": 11,
        "ImageOrientationPatient": [
          0.99991272176587,
          -0.0104875304168,
          0.00803495840217,
          0.01003334518996,
          0.207117825706,
          -0.9782645543303
        ],
        "ImagePositionPatient": [
          -728.27332586475,
          -187.59712455365,
          679.165822268
        ],
        "ImageType": [
          "ORIGINAL",
          "PRIMARY",
          "M",
          "MB",
          "ND",
          "MOSAIC"
        ],
        "ImagedNucleus": "1H",
        "ImagingFrequency": 297.205609,
        "InPlanePhaseEncodingDirection": "COL",
        "LargestImagePixelValue": 4095,
        "MRAcquisitionType": "2D",
        "MagneticFieldStrength": 6.98,
        "Manufacturer": "SIEMENS",
        "ManufacturerModelName": "Investigational_Device_7T",
        "Modality": "MR",
        "NumberOfAverages": 1.0,
        "NumberOfPhaseEncodingSteps": 141,
        "PercentPhaseFieldOfView": 100.0,
        "PercentSampling": 100.0,
        "PerformedProcedureStepStartTime": "174020.343000",
        "PhotometricInterpretation": "MONOCHROME2",
        "PixelBandwidth": 1400.0,
        "PixelRepresentation": 0,
        "PixelSpacing": [
          1.0957447290421,
          1.0957447290421
        ],
        "ProtocolName": "cmrr_mbep2d_bold_AP_run12",
        "RepetitionTime": 2600.0,
        "Rows": 1316,
        "SAR": 0.07549286317814,
        "SamplesPerPixel": 1,
        "ScanOptions": [
          "PFP",
          "FS"
        ],
        "ScanningSequence": "EP",
        "SequenceName": "epfid2d1_188",
        "SequenceVariant": [
          "SK",
          "SS"
        ],
        "SeriesDescription": "cmrr_mbep2d_bold_AP_run12",
        "SeriesNumber": 25,
        "SeriesTime": "193515.093000",
        "SliceLocation": -49.05198509884,
        "SliceThickness": 1.1000000238419,
        "SmallestImagePixelValue": 0,
        "SoftwareVersions": "syngo MR B17",
        "SpacingBetweenSlices": 1.0999995139051,
        "SpecificCharacterSet": "ISO_IR 100",
        "StudyID": "1",
        "StudyTime": "174020.281000",
        "TransmitCoilName": "32Ch_Head_7T",
        "VariableFlipAngleFlag": "N",
        "WindowCenterWidthExplanation": "Algo1",
        "dBdt": 0.0
      },
      "slices": {}
    },
    "modality": "bold",
    "run_id": 12,
    "session_id": "SES02",
    "subject_id": "S10",
    "task_id": "auditory",
    "time": {
      "samples": {
        "AcquisitionNumber": [
          1,
          2,
          3,
          4,
          5,
          6,
          7,
          8,
          9,
          10,
          11,
          12,
          13,
          14,
          15,
          16,
          17,
          18,
          19,
          20,
          21,
          22,
          23,
          24,
          25,
          26,
          27,
          28,
          29,
          30,
          31,
          32,
          33,
          34,
          35,
          36,
          37,
          38,
          39,
          40,
          41,
          42,
          43,
          44,
          45,
          46,
          47,
          48,
          49,
          50,
          51,
          52,
          53,
          54,
          55,
          56,
          57,
          58,
          59,
          60,
          61,
          62,
          63,
          64,
          65,
          66,
          67,
          68,
          69,
          70,
          71,
          72,
          73,
          74,
          75,
          76,
          77,
          78,
          79,
          80,
          81,
          82,
          83,
          84,
          85,
          86,
          87,
          88,
          89,
          90,
          91,
          92,
          93,
          94,
          95,
          96,
          97,
          98,
          99,
          100,
          101,
          102,
          103,
          104,
          105,
          106,
          107,
          108,
          109,
          110,
          111,
          112,
          113,
          114,
          115,
          116,
          117,
          118,
          119,
          120,
          121,
          122,
          123,
          124,
          125,
          126,
          127,
          128,
          129,
          130,
          131,
          132,
          133,
          134,
          135,
          136,
          137,
          138,
          139,
          140,
          141,
          142,
          143,
          144,
          145,
          146,
          147,
          148,
          149,
          150
        ],
        "AcquisitionTime": [
          "193506.045000",
          "193508.655000",
          "193511.265000",
          "193513.877500",
          "193516.487500",
          "193519.097500",
          "193521.707500",
          "193524.317500",
          "193526.930000",
          "193529.540000",
          "193532.150000",
          "193534.760000",
          "193537.370000",
          "193539.980000",
          "193542.592500",
          "193545.202500",
          "193547.812500",
          "193550.422500",
          "193553.032500",
          "193555.642500",
          "193558.255000",
          "193600.865000",
          "193603.475000",
          "193606.085000",
          "193608.695000",
          "193611.307500",
          "193613.917500",
          "193616.527500",
          "193619.137500",
          "193621.747500",
          "193624.357500",
          "193626.970000",
          "193629.580000",
          "193632.190000",
          "193634.800000",
          "193637.410000",
          "193640.020000",
          "193642.632500",
          "193645.242500",
          "193647.852500",
          "193650.462500",
          "193653.072500",
          "193655.685000",
          "193658.295000",
          "193700.905000",
          "193703.515000",
          "193706.125000",
          "193708.735000",
          "193711.347500",
          "193713.957500",
          "193716.567500",
          "193719.177500",
          "193721.787500",
          "193724.397500",
          "193727.010000",
          "193729.620000",
          "193732.230000",
          "193734.840000",
          "193737.450000",
          "193740.062500",
          "193742.672500",
          "193745.282500",
          "193747.892500",
          "193750.502500",
          "193753.112500",
          "193755.725000",
          "193758.335000",
          "193800.945000",
          "193803.555000",
          "193806.165000",
          "193808.775000",
          "193811.387500",
          "193813.997500",
          "193816.607500",
          "193819.217500",
          "193821.827500",
          "193824.440000",
          "193827.050000",
          "193829.660000",
          "193832.270000",
          "193834.880000",
          "193837.490000",
          "193840.102500",
          "193842.712500",
          "193845.322500",
          "193847.932500",
          "193850.542500",
          "193853.152500",
          "193855.765000",
          "193858.375000",
          "193900.985000",
          "193903.595000",
          "193906.205000",
          "193908.817500",
          "193911.427500",
          "193914.037500",
          "193916.647500",
          "193919.257500",
          "193921.867500",
          "193924.480000",
          "193927.090000",
          "193929.700000",
          "193932.310000",
          "193934.920000",
          "193937.530000",
          "193940.142500",
          "193942.752500",
          "193945.362500",
          "193947.972500",
          "193950.582500",
          "193953.195000",
          "193955.805000",
          "193958.415000",
          "194001.025000",
          "194003.635000",
          "194006.245000",
          "194008.857500",
          "194011.467500",
          "194014.077500",
          "194016.687500",
          "194019.297500",
          "194021.907500",
          "194024.520000",
          "194027.130000",
          "194029.740000",
          "194032.350000",
          "194034.960000",
          "194037.572500",
          "194040.182500",
          "194042.792500",
          "194045.402500",
          "194048.012500",
          "194050.622500",
          "194053.235000",
          "194055.845000",
          "194058.455000",
          "194101.065000",
          "194103.675000",
          "194106.285000",
          "194108.897500",
          "194111.507500",
          "194114.117500",
          "194116.727500",
          "194119.337500",
          "194121.950000",
          "194124.560000",
          "194127.170000",
          "194129.780000",
          "194132.390000",
          "194135.000000"
        ],
        "ContentTime": [
          "193515.093000",
          "193515.593000",
          "193516.093000",
          "193518.593000",
          "193521.093000",
          "193523.593000",
          "193526.093000",
          "193529.093000",
          "193531.593000",
          "193534.093000",
          "193536.593000",
          "193539.093000",
          "193541.593000",
          "193544.593000",
          "193547.093000",
          "193549.593000",
          "193552.093000",
          "193555.093000",
          "193557.593000",
          "193600.093000",
          "193602.593000",
          "193605.093000",
          "193607.593000",
          "193610.593000",
          "193613.093000",
          "193615.593000",
          "193618.093000",
          "193621.093000",
          "193623.593000",
          "193626.093000",
          "193628.593000",
          "193631.093000",
          "193633.593000",
          "193636.593000",
          "193639.093000",
          "193641.593000",
          "193644.093000",
          "193646.593000",
          "193649.593000",
          "193652.093000",
          "193654.593000",
          "193657.093000",
          "193700.093000",
          "193702.593000",
          "193705.093000",
          "193707.593000",
          "193710.093000",
          "193712.593000",
          "193715.593000",
          "193718.093000",
          "193720.593000",
          "193723.093000",
          "193726.093000",
          "193728.593000",
          "193731.093000",
          "193733.593000",
          "193736.093000",
          "193739.093000",
          "193741.593000",
          "193744.093000",
          "193746.593000",
          "193749.093000",
          "193751.593000",
          "193754.593000",
          "193757.093000",
          "193759.593000",
          "193802.093000",
          "193805.093000",
          "193807.593000",
          "193810.093000",
          "193812.593000",
          "193815.093000",
          "193818.093000",
          "193820.593000",
          "193823.093000",
          "193825.593000",
          "193828.093000",
          "193830.593000",
          "193833.593000",
          "193836.093000",
          "193838.593000",
          "193841.093000",
          "193844.093000",
          "193846.593000",
          "193849.093000",
          "193851.593000",
          "193854.093000",
          "193857.093000",
          "193859.593000",
          "193902.093000",
          "193904.593000",
          "193907.093000",
          "193910.093000",
          "193912.593000",
          "193915.093000",
          "193917.593000",
          "193920.093000",
          "193923.093000",
          "193925.593000",
          "193928.093000",
          "193930.593000",
          "193933.093000",
          "193936.093000",
          "193938.593000",
          "193941.093000",
          "193943.593000",
          "193946.093000",
          "193949.093000",
          "193951.593000",
          "193954.093000",
          "193956.593000",
          "193959.093000",
          "194002.093000",
          "194004.593000",
          "194007.093000",
          "194009.593000",
          "194012.093000",
          "194015.093000",
          "194017.593000",
          "194020.093000",
          "194022.593000",
          "194025.093000",
          "194028.093000",
          "194030.593000",
          "194033.093000",
          "194035.593000",
          "194038.093000",
          "194041.093000",
          "194043.593000",
          "194046.093000",
          "194048.593000",
          "194051.093000",
          "194054.093000",
          "194056.593000",
          "194059.093000",
          "194101.593000",
          "194104.093000",
          "194107.093000",
          "194109.593000",
          "194112.093000",
          "194114.593000",
          "194117.093000",
          "194120.093000",
          "194122.593000",
          "194125.093000",
          "194127.593000",
          "194130.093000",
          "194133.093000",
          "194135.593000",
          "194142.828000"
        ],
        "InstanceCreationTime": [
          "193515.093000",
          "193515.593000",
          "193516.093000",
          "193518.593000",
          "193521.093000",
          "193523.593000",
          "193526.093000",
          "193529.093000",
          "193531.593000",
          "193534.093000",
          "193536.593000",
          "193539.093000",
          "193541.593000",
          "193544.593000",
          "193547.093000",
          "193549.593000",
          "193552.093000",
          "193555.093000",
          "193557.593000",
          "193600.093000",
          "193602.593000",
          "193605.093000",
          "193607.593000",
          "193610.593000",
          "193613.093000",
          "193615.593000",
          "193618.093000",
          "193621.093000",
          "193623.593000",
          "193626.093000",
          "193628.593000",
          "193631.093000",
          "193633.593000",
          "193636.593000",
          "193639.093000",
          "193641.593000",
          "193644.093000",
          "193646.593000",
          "193649.593000",
          "193652.093000",
          "193654.593000",
          "193657.093000",
          "193700.093000",
          "193702.593000",
          "193705.093000",
          "193707.593000",
          "193710.093000",
          "193712.593000",
          "193715.593000",
          "193718.093000",
          "193720.593000",
          "193723.093000",
          "193726.093000",
          "193728.593000",
          "193731.093000",
          "193733.593000",
          "193736.093000",
          "193739.093000",
          "193741.593000",
          "193744.093000",
          "193746.593000",
          "193749.093000",
          "193751.593000",
          "193754.593000",
          "193757.093000",
          "193759.593000",
          "193802.093000",
          "193805.093000",
          "193807.593000",
          "193810.093000",
          "193812.593000",
          "193815.093000",
          "193818.093000",
          "193820.593000",
          "193823.093000",
          "193825.593000",
          "193828.093000",
          "193830.593000",
          "193833.593000",
          "193836.093000",
          "193838.593000",
          "193841.093000",
          "193844.093000",
          "193846.593000",
          "193849.093000",
          "193851.593000",
          "193854.093000",
          "193857.093000",
          "193859.593000",
          "193902.093000",
          "193904.593000",
          "193907.093000",
          "193910.093000",
          "193912.593000",
          "193915.093000",
          "193917.593000",
          "193920.093000",
          "193923.093000",
          "193925.593000",
          "193928.093000",
          "193930.593000",
          "193933.093000",
          "193936.093000",
          "193938.593000",
          "193941.093000",
          "193943.593000",
          "193946.093000",
          "193949.093000",
          "193951.593000",
          "193954.093000",
          "193956.593000",
          "193959.093000",
          "194002.093000",
          "194004.593000",
          "194007.093000",
          "194009.593000",
          "194012.093000",
          "194015.093000",
          "194017.593000",
          "194020.093000",
          "194022.593000",
          "194025.093000",
          "194028.093000",
          "194030.593000",
          "194033.093000",
          "194035.593000",
          "194038.093000",
          "194041.093000",
          "194043.593000",
          "194046.093000",
          "194048.593000",
          "194051.093000",
          "194054.093000",
          "194056.593000",
          "194059.093000",
          "194101.593000",
          "194104.093000",
          "194107.093000",
          "194109.593000",
          "194112.093000",
          "194114.593000",
          "194117.093000",
          "194120.093000",
          "194122.593000",
          "194125.093000",
          "194127.593000",
          "194130.093000",
          "194133.093000",
          "194135.593000",
          "194142.828000"
        ],
        "InstanceNumber": [
          1,
          2,
          3,
          4,
          5,
          6,
          7,
          8,
          9,
          10,
          11,
          12,
          13,
          14,
          15,
          16,
          17,
          18,
          19,
          20,
          21,
          22,
          23,
          24,
          25,
          26,
          27,
          28,
          29,
          30,
          31,
          32,
          33,
          34,
          35,
          36,
          37,
          38,
          39,
          40,
          41,
          42,
          43,
          44,
          45,
          46,
          47,
          48,
          49,
          50,
          51,
          52,
          53,
          54,
          55,
          56,
          57,
          58,
          59,
          60,
          61,
          62,
          63,
          64,
          65,
          66,
          67,
          68,
          69,
          70,
          71,
          72,
          73,
          74,
          75,
          76,
          77,
          78,
          79,
          80,
          81,
          82,
          83,
          84,
          85,
          86,
          87,
          88,
          89,
          90,
          91,
          92,
          93,
          94,
          95,
          96,
          97,
          98,
          99,
          100,
          101,
          102,
          103,
          104,
          105,
          106,
          107,
          108,
          109,
          110,
          111,
          112,
          113,
          114,
          115,
          116,
          117,
          118,
          119,
          120,
          121,
          122,
          123,
          124,
          125,
          126,
          127,
          128,
          129,
          130,
          131,
          132,
          133,
          134,
          135,
          136,
          137,
          138,
          139,
          140,
          141,
          142,
          143,
          144,
          145,
          146,
          147,
          148,
          149,
          150
        ],
        "WindowCenter": [
          937.0,
          937.0,
          936.0,
          934.0,
          935.0,
          935.0,
          935.0,
          934.0,
          936.0,
          935.0,
          933.0,
          934.0,
          936.0,
          934.0,
          934.0,
          935.0,
          935.0,
          934.0,
          934.0,
          935.0,
          934.0,
          934.0,
          934.0,
          934.0,
          933.0,
          934.0,
          936.0,
          936.0,
          934.0,
          934.0,
          935.0,
          935.0,
          935.0,
          935.0,
          934.0,
          934.0,
          934.0,
          933.0,
          933.0,
          933.0,
          934.0,
          934.0,
          933.0,
          934.0,
          935.0,
          936.0,
          934.0,
          935.0,
          935.0,
          934.0,
          934.0,
          935.0,
          935.0,
          937.0,
          937.0,
          936.0,
          935.0,
          935.0,
          935.0,
          934.0,
          935.0,
          936.0,
          936.0,
          935.0,
          935.0,
          936.0,
          937.0,
          936.0,
          936.0,
          937.0,
          935.0,
          934.0,
          934.0,
          935.0,
          935.0,
          934.0,
          935.0,
          936.0,
          935.0,
          935.0,
          935.0,
          935.0,
          935.0,
          936.0,
          936.0,
          936.0,
          936.0,
          938.0,
          936.0,
          935.0,
          935.0,
          936.0,
          934.0,
          935.0,
          934.0,
          935.0,
          935.0,
          934.0,
          934.0,
          936.0,
          935.0,
          934.0,
          935.0,
          936.0,
          935.0,
          934.0,
          934.0,
          936.0,
          936.0,
          934.0,
          934.0,
          936.0,
          936.0,
          934.0,
          934.0,
          936.0,
          936.0,
          935.0,
          935.0,
          936.0,
          937.0,
          936.0,
          936.0,
          936.0,
          937.0,
          936.0,
          936.0,
          936.0,
          936.0,
          937.0,
          937.0,
          937.0,
          935.0,
          935.0,
          938.0,
          936.0,
          936.0,
          936.0,
          937.0,
          936.0,
          936.0,
          937.0,
          937.0,
          938.0,
          937.0,
          937.0,
          936.0,
          937.0,
          937.0,
          937.0
        ],
        "WindowWidth": [
          2145.0,
          2144.0,
          2141.0,
          2137.0,
          2139.0,
          2140.0,
          2138.0,
          2137.0,
          2143.0,
          2138.0,
          2134.0,
          2138.0,
          2141.0,
          2138.0,
          2138.0,
          2141.0,
          2140.0,
          2136.0,
          2137.0,
          2140.0,
          2136.0,
          2136.0,
          2138.0,
          2135.0,
          2135.0,
          2137.0,
          2144.0,
          2142.0,
          2136.0,
          2136.0,
          2140.0,
          2139.0,
          2138.0,
          2139.0,
          2138.0,
          2135.0,
          2136.0,
          2135.0,
          2133.0,
          2135.0,
          2138.0,
          2136.0,
          2134.0,
          2138.0,
          2140.0,
          2142.0,
          2137.0,
          2141.0,
          2138.0,
          2134.0,
          2138.0,
          2140.0,
          2140.0,
          2145.0,
          2146.0,
          2141.0,
          2140.0,
          2139.0,
          2138.0,
          2137.0,
          2139.0,
          2142.0,
          2143.0,
          2141.0,
          2140.0,
          2143.0,
          2144.0,
          2144.0,
          2144.0,
          2145.0,
          2140.0,
          2137.0,
          2137.0,
          2139.0,
          2139.0,
          2137.0,
          2139.0,
          2141.0,
          2139.0,
          2140.0,
          2140.0,
          2138.0,
          2140.0,
          2143.0,
          2144.0,
          2141.0,
          2144.0,
          2147.0,
          2144.0,
          2138.0,
          2139.0,
          2141.0,
          2137.0,
          2140.0,
          2137.0,
          2139.0,
          2138.0,
          2137.0,
          2137.0,
          2142.0,
          2140.0,
          2139.0,
          2140.0,
          2142.0,
          2141.0,
          2138.0,
          2137.0,
          2142.0,
          2141.0,
          2136.0,
          2137.0,
          2144.0,
          2143.0,
          2137.0,
          2138.0,
          2142.0,
          2141.0,
          2139.0,
          2140.0,
          2142.0,
          2147.0,
          2141.0,
          2142.0,
          2143.0,
          2145.0,
          2140.0,
          2143.0,
          2142.0,
          2142.0,
          2144.0,
          2146.0,
          2144.0,
          2139.0,
          2140.0,
          2147.0,
          2142.0,
          2140.0,
          2142.0,
          2146.0,
          2142.0,
          2142.0,
          2146.0,
          2144.0,
          2146.0,
          2144.0,
          2143.0,
          2143.0,
          2145.0,
          2144.0,
          2145.0
        ]
      },
      "slices": {}
    }
  },
  "dummy_trs": 0,
  "dvars_nstd": 73.1092850856376,
  "dvars_std": 1.0556832248993289,
  "dvars_vstd": 1.0201035751006713,
  "efc": 0.5864809790710646,
  "fber": 215.5155029296875,
  "fd_mean": 0.03572750564166593,
  "fd_num": 0,
  "fd_perc": 0.0,
  "fwhm_avg": 3.0356756394738227,
  "fwhm_x": 2.909938706971985,
  "fwhm_y": 2.84247773906514,
  "fwhm_z": 3.3546104723843437,
  "gcor": 0.00173591,
  "gsr_x": 0.05650051683187485,
  "gsr_y": 0.02485622465610504,
  "provenance": {
    "md5sum": "122fb0f96f4e69db8b78781599b1187b",
    "settings": {
      "fd_thres": 0.2,
      "testing": false
    },
    "software": "mriqc",
    "version": "23.0.1",
    "webapi_port": null,
    "webapi_url": "https://mriqc.nimh.nih.gov/api/v1"
  },
  "size_t": 150,
  "size_x": 188,
  "size_y": 188,
  "size_z": 46,
  "snr": 1.884456387463186,
  "spacing_tr": 2.5999999046325684,
  "spacing_x": 1.0957447290420532,
  "spacing_y": 1.0957447290420532,
  "spacing_z": 1.0999995470046997,
  "summary_bg_k": 34.109764903550314,
  "summary_bg_mad": 40.415739643642745,
  "summary_bg_mean": 132.04876708984375,
  "summary_bg_median": 65.11333465576172,
  "summary_bg_n": 1030975.0,
  "summary_bg_p05": 32.8466682434082,
  "summary_bg_p95": 425.413330078125,
