{
  "aor": 0.0007354666666666667,
  "aqi": 0.011980976200000002,
  "bids_meta": {
    "AcquisitionMatrixPE": 188,
    "AcquisitionNumber": 1,
    "AcquisitionTime": "18:22:58.020000",
    "BandwidthPerPixelPhaseEncode": 19.46,
    "BaseResolution": 188,
    "CogAtlasID": "TODO",
    "ConversionSoftware": "dcm2niix",
    "ConversionSoftwareVersion": "v1.0.20180606 GCC4.8.5",
    "DelayTime": 1.2,
    "DerivedVendorReportedEchoSpacing": 0.000820013,
    "DeviceSerialNumber": "18930",
    "DwellTime": 1.9e-06,
    "EchoTime": 0.02,
    "EffectiveEchoSpacing": 0.000273338,
    "FlipAngle": 80,
    "ImageComments": "Unaliased_MB2_PE2",
    "ImageOrientationPatientDICOM": [
      0.999913,
      -0.0104875,
      0.00803496,
      0.0100333,
      0.207118,
      -0.978265
    ],
    "ImageType": [
      "ORIGINAL",
      "PRIMARY",
      "M",
      "MB",
      "ND",
      "MOSAIC"
    ],
    "InPlanePhaseEncodingDirectionDICOM": "COL",
    "InstitutionAddress": "Oxfordlaan_55_Maastricht_753AAF_Limburg_NL_6229_EV",
    "InstitutionName": "Scannexus",
    "InstitutionalDepartmentName": "MRI_7T",
    "MRAcquisitionType": "2D",
    "MagneticFieldStrength": 6.98,
    "Manufacturer": "Siemens",
    "ManufacturersModelName": "Investigational_Device_7T",
    "Modality": "MR",
    "MultibandAccelerationFactor": 2,
    "ParallelReductionFactorInPlane": 3,
    "PartialFourier": 0.75,
    "PatientPosition": "HFS",
    "PercentPhaseFOV": 100,
    "PhaseEncodingDirection": "j",
    "PhaseEncodingSteps": 141,
    "PhaseResolution": 1,
    "PixelBandwidth": 1400,
    "ProcedureStepDescription": "FeDem_Faruk",
    "ProtocolName": "cmrr_mbep2d_bold_AP_run3",
    "PulseSequenceDetails": "%CustomerSeq%_cmrr_mbep2d_bold",
    "ReceiveCoilName": "32Ch_Head_7T",
    "ReconMatrixPE": 188,
    "RepetitionTime": 2.6,
    "SAR": 0.0755757,
    "ScanOptions": "PFP_FS",
    "ScanningSequence": "EP",
    "SequenceName": "epfid2d1_188",
    "SequenceVariant": "SK_SS",
    "SeriesDescription": "cmrr_mbep2d_bold_AP_run3",
    "SeriesNumber": 14,
    "ShimSetting": [
      112,
      -93,
      409,
      471,
      -90,
      78,
      246,
      177
    ],
    "SliceThickness": 1.1,
    "SliceTiming": [
      0,
      0.7325,
      0.06,
      0.7925,
      0.1225,
      0.855,
      0.1825,
      0.915,
      0.2425,
      0.9775,
      0.305,
      1.0375,
      0.365,
      1.1,
      0.4275,
      1.16,
      0.4875,
      1.2225,
      0.55,
      1.2825,
      0.61,
      1.3425,
      0.6725,
      0,
      0.7325,
      0.06,
      0.7925,
      0.1225,
      0.855,
      0.1825,
      0.915,
      0.2425,
      0.9775,
      0.305,
      1.0375,
      0.365,
      1.1,
      0.4275,
      1.16,
      0.4875,
      1.2225,
      0.55,
      1.2825,
      0.61,
      1.3425,
      0.6725
    ],
    "SoftwareVersions": "syngo_MR_B17",
    "SpacingBetweenSlices": 1.1,
    "StationName": "MRC18930",
    "TaskName": "auditory",
    "TotalReadoutTime": 0.0511141,
    "TxRefAmp": 230,
    "dataset": "ds001942",
    "dcmmeta_affine": [
      [
        -1.0956491231918335,
        0.010993985459208488,
        -0.009454931132495403,
        102.07075500488281
      ],
      [
        0.011491656303405762,
        0.22694826126098633,
        -1.0760853290557861,
        23.640270233154297
      ],
      [
        0.008804263547062874,
        1.0719282627105713,
        0.2279253751039505,
        -120.88667297363281
      ],
      [
        0.0,
        0.0,
        0.0,
        1.0
      ]
    ],
    "dcmmeta_reorient_transform": [
      [
        0.0,
        -1.0,
        0.0,
        187.0
      ],
      [
        1.0,
        0.0,
        0.0,
        0.0
      ],
      [
        0.0,
        0.0,
        1.0,
        0.0
      ],
      [
        0.0,
        0.0,
        0.0,
        1.0
      ]
    ],
    "dcmmeta_shape": [
      188,
      188,
      46,
      150
    ],
    "dcmmeta_slice_dim": 2,
    "dcmmeta_version": 0.6,
    "global": {
      "const": {
        "AcquisitionMatrix": [
          188,
          0,
          0,
          188
        ],
        "AngioFlag": "N",
        "BitsAllocated": 16,
        "BitsStored": 12,
        "Columns": 1316,
        "EchoNumbers": 1,
        "EchoTime": 20.0,
        "EchoTrainLength": 1,
        "FlipAngle": 80.0,
        "HighBit": 11,
        "ImageOrientationPatient": [
          0.99991272176587,
          -0.0104875304168,
          0.00803495840217,
          0.01003334518996,
          0.207117825706,
          -0.9782645543303
        ],
        "ImagePositionPatient": [
          -728.27332586475,
          -187.59712455365,
          679.165822268
        ],
        "ImageType": [
          "ORIGINAL",
          "PRIMARY",
          "M",
          "MB",
          "ND",
          "MOSAIC"
        ],
        "ImagedNucleus": "1H",
        "ImagingFrequency": 297.205594,
        "InPlanePhaseEncodingDirection": "COL",
        "LargestImagePixelValue": 4095,
        "MRAcquisitionType": "2D",
        "MagneticFieldStrength": 6.98,
        "Manufacturer": "SIEMENS",
        "ManufacturerModelName": "Investigational_Device_7T",
        "Modality": "MR",
        "NumberOfAverages": 1.0,
        "NumberOfPhaseEncodingSteps": 141,
        "PercentPhaseFieldOfView": 100.0,
        "PercentSampling": 100.0,
        "PerformedProcedureStepStartTime": "174020.343000",
        "PhotometricInterpretation": "MONOCHROME2",
        "PixelBandwidth": 1400.0,
        "PixelRepresentation": 0,
        "PixelSpacing": [
          1.0957447290421,
          1.0957447290421
        ],
        "ProtocolName": "cmrr_mbep2d_bold_AP_run3",
        "RepetitionTime": 2600.0,
        "Rows": 1316,
        "SAR": 0.07557572750094,
        "SamplesPerPixel": 1,
        "ScanOptions": [
          "PFP",
          "FS"
        ],
        "ScanningSequence": "EP",
        "SequenceName": "epfid2d1_188",
        "SequenceVariant": [
          "SK",
          "SS"
        ],
        "SeriesDescription": "cmrr_mbep2d_bold_AP_run3",
        "SeriesNumber": 14,
        "SeriesTime": "182306.734000",
        "SliceLocation": -49.05198509884,
        "SliceThickness": 1.1000000238419,
        "SmallestImagePixelValue": 0,
        "SoftwareVersions": "syngo MR B17",
        "SpacingBetweenSlices": 1.0999995139051,
        "SpecificCharacterSet": "ISO_IR 100",
        "StudyID": "1",
        "StudyTime": "174020.281000",
        "TransmitCoilName": "32Ch_Head_7T",
        "VariableFlipAngleFlag": "N",
        "WindowCenterWidthExplanation": "Algo1",
        "dBdt": 0.0
      },
      "slices": {}
    },
    "modality": "bold",
    "run_id": 3,
    "session_id": "SES02",
    "subject_id": "S10",
    "task_id": "auditory",
    "time": {
      "samples": {
        "AcquisitionNumber": [
          1,
          2,
          3,
          4,
          5,
          6,
          7,
          8,
          9,
          10,
          11,
          12,
          13,
          14,
          15,
          16,
          17,
          18,
          19,
          20,
          21,
          22,
          23,
          24,
          25,
          26,
          27,
          28,
          29,
          30,
          31,
          32,
          33,
          34,
          35,
          36,
          37,
          38,
          39,
          40,
          41,
          42,
          43,
          44,
          45,
          46,
          47,
          48,
          49,
          50,
          51,
          52,
          53,
          54,
          55,
          56,
          57,
          58,
          59,
          60,
          61,
          62,
          63,
          64,
          65,
          66,
          67,
          68,
          69,
          70,
          71,
          72,
          73,
          74,
          75,
          76,
          77,
          78,
          79,
          80,
          81,
          82,
          83,
          84,
          85,
          86,
          87,
          88,
          89,
          90,
          91,
          92,
          93,
          94,
          95,
          96,
          97,
          98,
          99,
          100,
          101,
          102,
          103,
          104,
          105,
          106,
          107,
          108,
          109,
          110,
          111,
          112,
          113,
          114,
          115,
          116,
          117,
          118,
          119,
          120,
          121,
          122,
          123,
          124,
          125,
          126,
          127,
          128,
          129,
          130,
          131,
          132,
          133,
          134,
          135,
          136,
          137,
          138,
          139,
          140,
          141,
          142,
          143,
          144,
          145,
          146,
          147,
          148,
          149,
          150
        ],
        "AcquisitionTime": [
          "182258.020000",
          "182300.630000",
          "182303.240000",
          "182305.850000",
          "182308.460000",
          "182311.072500",
          "182313.682500",
          "182316.292500",
          "182318.902500",
          "182321.512500",
          "182324.122500",
          "182326.735000",
          "182329.345000",
          "182331.955000",
          "182334.565000",
          "182337.175000",
          "182339.787500",
          "182342.397500",
          "182345.007500",
          "182347.617500",
          "182350.227500",
          "182352.837500",
          "182355.450000",
          "182358.060000",
          "182400.670000",
          "182403.280000",
          "182405.890000",
          "182408.500000",
          "182411.112500",
          "182413.722500",
          "182416.332500",
          "182418.942500",
          "182421.552500",
          "182424.165000",
          "182426.775000",
          "182429.385000",
          "182431.995000",
          "182434.605000",
          "182437.215000",
          "182439.827500",
          "182442.437500",
          "182445.047500",
          "182447.657500",
          "182450.267500",
          "182452.877500",
          "182455.490000",
          "182458.100000",
          "182500.710000",
          "182503.320000",
          "182505.930000",
          "182508.542500",
          "182511.152500",
          "182513.762500",
          "182516.372500",
          "182518.982500",
          "182521.592500",
          "182524.205000",
          "182526.815000",
          "182529.425000",
          "182532.035000",
          "182534.645000",
          "182537.255000",
          "182539.867500",
          "182542.477500",
          "182545.087500",
          "182547.697500",
          "182550.307500",
          "182552.920000",
          "182555.530000",
          "182558.140000",
          "182600.750000",
          "182603.360000",
          "182605.970000",
          "182608.582500",
          "182611.192500",
          "182613.802500",
          "182616.412500",
          "182619.022500",
          "182621.632500",
          "182624.245000",
          "182626.855000",
          "182629.465000",
          "182632.075000",
          "182634.685000",
          "182637.297500",
          "182639.907500",
          "182642.517500",
          "182645.127500",
          "182647.737500",
          "182650.347500",
          "182652.960000",
          "182655.570000",
          "182658.180000",
          "182700.790000",
          "182703.400000",
          "182706.010000",
          "182708.622500",
          "182711.232500",
          "182713.842500",
          "182716.452500",
          "182719.062500",
          "182721.675000",
          "182724.285000",
          "182726.895000",
          "182729.505000",
          "182732.115000",
          "182734.725000",
          "182737.337500",
          "182739.947500",
          "182742.557500",
          "182745.167500",
          "182747.777500",
          "182750.390000",
          "182753.000000",
          "182755.610000",
          "182758.220000",
          "182800.830000",
          "182803.440000",
          "182806.052500",
          "182808.662500",
          "182811.272500",
          "182813.882500",
          "182816.492500",
          "182819.102500",
          "182821.715000",
          "182824.325000",
          "182826.935000",
          "182829.545000",
          "182832.155000",
          "182834.767500",
          "182837.377500",
          "182839.987500",
          "182842.597500",
          "182845.207500",
          "182847.817500",
          "182850.430000",
          "182853.040000",
          "182855.650000",
          "182858.260000",
          "182900.870000",
          "182903.480000",
          "182906.092500",
          "182908.702500",
          "182911.312500",
          "182913.922500",
          "182916.532500",
          "182919.145000",
          "182921.755000",
          "182924.365000",
          "182926.975000"
        ],
        "ContentTime": [
          "182306.734000",
          "182307.234000",
          "182307.734000",
          "182310.234000",
          "182312.734000",
          "182315.234000",
          "182317.734000",
          "182320.234000",
          "182323.234000",
          "182325.734000",
          "182328.234000",
          "182330.734000",
          "182333.234000",
          "182336.234000",
          "182338.734000",
          "182341.234000",
          "182343.734000",
          "182346.234000",
          "182349.234000",
          "182351.734000",
          "182354.234000",
          "182356.734000",
          "182359.234000",
          "182402.234000",
          "182404.734000",
          "182407.234000",
          "182409.734000",
          "182412.234000",
          "182415.234000",
          "182417.734000",
          "182420.234000",
          "182422.734000",
          "182425.234000",
          "182428.234000",
          "182430.734000",
          "182433.234000",
          "182435.734000",
          "182438.234000",
          "182441.234000",
          "182443.734000",
          "182446.234000",
          "182448.734000",
          "182451.234000",
          "182454.234000",
          "182456.734000",
          "182459.234000",
          "182501.734000",
          "182504.234000",
          "182507.234000",
          "182509.734000",
          "182512.234000",
          "182514.734000",
          "182517.234000",
          "182520.234000",
          "182522.734000",
          "182525.234000",
          "182527.734000",
          "182530.234000",
          "182533.234000",
          "182535.734000",
          "182538.234000",
          "182540.734000",
          "182543.234000",
          "182546.234000",
          "182548.734000",
          "182551.234000",
          "182553.734000",
          "182556.234000",
          "182559.234000",
          "182601.734000",
          "182604.234000",
          "182606.734000",
          "182609.234000",
          "182612.234000",
          "182614.734000",
          "182617.234000",
          "182619.734000",
          "182622.234000",
          "182625.234000",
          "182627.734000",
          "182630.234000",
          "182632.734000",
          "182635.234000",
          "182638.234000",
          "182640.734000",
          "182643.234000",
          "182645.734000",
          "182648.234000",
          "182651.234000",
          "182653.734000",
          "182656.234000",
          "182658.734000",
          "182701.234000",
          "182704.234000",
          "182706.734000",
          "182709.234000",
          "182711.734000",
          "182714.234000",
          "182717.234000",
          "182719.734000",
          "182722.234000",
          "182724.734000",
          "182727.234000",
          "182730.234000",
          "182732.734000",
          "182735.234000",
          "182737.734000",
          "182740.234000",
          "182743.234000",
          "182745.734000",
          "182748.234000",
          "182750.734000",
          "182753.234000",
          "182756.234000",
          "182758.734000",
          "182801.234000",
          "182803.734000",
          "182806.234000",
          "182809.234000",
          "182811.734000",
          "182814.234000",
          "182816.734000",
          "182819.234000",
          "182822.234000",
          "182824.734000",
          "182827.234000",
          "182829.734000",
          "182832.234000",
          "182835.234000",
          "182837.734000",
          "182840.234000",
          "182842.734000",
          "182845.234000",
          "182848.234000",
          "182850.734000",
          "182853.234000",
          "182855.734000",
          "182858.234000",
          "182901.234000",
          "182903.734000",
          "182906.234000",
          "182908.734000",
          "182911.234000",
          "182914.234000",
          "182916.734000",
          "182919.234000",
          "182921.734000",
          "182924.234000",
          "182927.234000",
          "182934.375000"
        ],
        "InstanceCreationTime": [
          "182306.734000",
          "182307.234000",
          "182307.734000",
          "182310.234000",
          "182312.734000",
          "182315.234000",
          "182317.734000",
          "182320.234000",
          "182323.234000",
          "182325.734000",
          "182328.234000",
          "182330.734000",
          "182333.234000",
          "182336.234000",
          "182338.734000",
          "182341.234000",
          "182343.734000",
          "182346.234000",
          "182349.234000",
          "182351.734000",
          "182354.234000",
          "182356.734000",
          "182359.234000",
          "182402.234000",
          "182404.734000",
          "182407.234000",
          "182409.734000",
          "182412.234000",
          "182415.234000",
          "182417.734000",
          "182420.234000",
          "182422.734000",
          "182425.234000",
          "182428.234000",
          "182430.734000",
          "182433.234000",
          "182435.734000",
          "182438.234000",
          "182441.234000",
          "182443.734000",
          "182446.234000",
          "182448.734000",
          "182451.234000",
          "182454.234000",
          "182456.734000",
          "182459.234000",
          "182501.734000",
          "182504.234000",
          "182507.234000",
          "182509.734000",
          "182512.234000",
          "182514.734000",
          "182517.234000",
          "182520.234000",
          "182522.734000",
          "182525.234000",
          "182527.734000",
          "182530.234000",
          "182533.234000",
          "182535.734000",
          "182538.234000",
          "182540.734000",
          "182543.234000",
          "182546.234000",
          "182548.734000",
          "182551.234000",
          "182553.734000",
          "182556.234000",
          "182559.234000",
          "182601.734000",
          "182604.234000",
          "182606.734000",
          "182609.234000",
          "182612.234000",
          "182614.734000",
          "182617.234000",
          "182619.734000",
          "182622.234000",
          "182625.234000",
          "182627.734000",
          "182630.234000",
          "182632.734000",
          "182635.234000",
          "182638.234000",
          "182640.734000",
          "182643.234000",
          "182645.734000",
          "182648.234000",
          "182651.234000",
          "182653.734000",
          "182656.234000",
          "182658.734000",
          "182701.234000",
          "182704.234000",
          "182706.734000",
          "182709.234000",
          "182711.734000",
          "182714.234000",
          "182717.234000",
          "182719.734000",
          "182722.234000",
          "182724.734000",
          "182727.234000",
          "182730.234000",
          "182732.734000",
          "182735.234000",
          "182737.734000",
          "182740.234000",
          "182743.234000",
          "182745.734000",
          "182748.234000",
          "182750.734000",
          "182753.234000",
          "182756.234000",
          "182758.734000",
          "182801.234000",
          "182803.734000",
          "182806.234000",
          "182809.234000",
          "182811.734000",
          "182814.234000",
          "182816.734000",
          "182819.234000",
          "182822.234000",
          "182824.734000",
          "182827.234000",
          "182829.734000",
          "182832.234000",
          "182835.234000",
          "182837.734000",
          "182840.234000",
          "182842.734000",
          "182845.234000",
          "182848.234000",
          "182850.734000",
          "182853.234000",
          "182855.734000",
          "182858.234000",
          "182901.234000",
          "182903.734000",
          "182906.234000",
          "182908.734000",
          "182911.234000",
          "182914.234000",
          "182916.734000",
          "182919.234000",
          "182921.734000",
          "182924.234000",
          "182927.234000",
          "182934.375000"
        ],
        "InstanceNumber": [
          1,
          2,
          3,
          4,
          5,
          6,
          7,
          8,
          9,
          10,
          11,
          12,
          13,
          14,
          15,
          16,
          17,
          18,
          19,
          20,
          21,
          22,
          23,
          24,
          25,
          26,
          27,
          28,
          29,
          30,
          31,
          32,
          33,
          34,
          35,
          36,
          37,
          38,
          39,
          40,
          41,
          42,
          43,
          44,
          45,
          46,
          47,
          48,
          49,
          50,
          51,
          52,
          53,
          54,
          55,
          56,
          57,
          58,
          59,
          60,
          61,
          62,
          63,
          64,
          65,
          66,
          67,
          68,
          69,
          70,
          71,
          72,
          73,
          74,
          75,
          76,
          77,
          78,
          79,
          80,
          81,
          82,
          83,
          84,
          85,
          86,
          87,
          88,
          89,
          90,
          91,
          92,
          93,
          94,
          95,
          96,
          97,
          98,
          99,
          100,
          101,
          102,
          103,
          104,
          105,
          106,
          107,
          108,
          109,
          110,
          111,
          112,
          113,
          114,
          115,
          116,
          117,
          118,
          119,
          120,
          121,
          122,
          123,
          124,
          125,
          126,
          127,
          128,
          129,
          130,
          131,
          132,
          133,
          134,
          135,
          136,
          137,
          138,
          139,
          140,
          141,
          142,
          143,
          144,
          145,
          146,
          147,
          148,
          149,
          150
        ],
        "WindowCenter": [
          937.0,
          936.0,
          934.0,
          932.0,
          934.0,
          936.0,
          934.0,
          934.0,
          935.0,
          934.0,
          934.0,
          933.0,
          932.0,
          932.0,
          934.0,
          936.0,
          933.0,
          931.0,
          933.0,
          933.0,
          932.0,
          932.0,
          932.0,
          934.0,
          935.0,
          932.0,
          931.0,
          933.0,
          933.0,
          934.0,
          934.0,
          935.0,
          934.0,
          934.0,
          934.0,
          935.0,
          936.0,
          935.0,
          934.0,
          935.0,
          934.0,
          933.0,
          934.0,
          933.0,
          932.0,
          934.0,
          935.0,
          933.0,
          932.0,
          933.0,
          935.0,
          936.0,
          935.0,
          932.0,
          932.0,
          934.0,
          934.0,
          934.0,
          934.0,
          933.0,
          932.0,
          931.0,
          933.0,
          935.0,
          933.0,
          932.0,
          933.0,
          937.0,
          935.0,
          932.0,
          932.0,
          932.0,
          933.0,
          933.0,
          932.0,
          932.0,
          933.0,
          937.0,
          936.0,
          933.0,
          932.0,
          932.0,
          932.0,
          934.0,
          936.0,
          934.0,
          935.0,
          934.0,
          934.0,
          935.0,
          933.0,
          933.0,
          936.0,
          936.0,
          934.0,
          932.0,
          933.0,
          932.0,
          931.0,
          931.0,
          934.0,
          934.0,
          933.0,
          933.0,
          933.0,
          932.0,
          931.0,
          932.0,
          932.0,
          930.0,
          933.0,
          934.0,
          932.0,
          933.0,
          934.0,
          931.0,
          933.0,
          933.0,
          931.0,
          931.0,
          935.0,
          937.0,
          933.0,
          931.0,
          933.0,
          934.0,
          932.0,
          932.0,
          932.0,
          932.0,
          932.0,
          932.0,
          931.0,
          932.0,
          932.0,
          932.0,
          933.0,
          933.0,
          933.0,
          934.0,
          933.0,
          934.0,
          935.0,
          934.0,
          934.0,
          933.0,
          933.0,
          933.0,
          934.0,
          935.0
        ],
        "WindowWidth": [
          2145.0,
          2143.0,
          2135.0,
          2132.0,
          2136.0,
          2143.0,
          2139.0,
          2137.0,
          2139.0,
          2138.0,
          2139.0,
          2135.0,
          2131.0,
          2131.0,
          2140.0,
          2143.0,
          2133.0,
          2128.0,
          2136.0,
          2134.0,
          2131.0,
          2130.0,
          2131.0,
          2139.0,
          2139.0,
          2128.0,
          2128.0,
          2132.0,
          2133.0,
          2136.0,
          2137.0,
          2140.0,
          2138.0,
          2139.0,
          2138.0,
          2141.0,
          2143.0,
          2142.0,
          2139.0,
          2141.0,
          2136.0,
          2133.0,
          2137.0,
          2133.0,
          2133.0,
          2138.0,
          2140.0,
          2133.0,
          2130.0,
          2135.0,
          2140.0,
          2145.0,
          2139.0,
          2130.0,
          2131.0,
          2139.0,
          2138.0,
          2136.0,
          2137.0,
          2132.0,
          2131.0,
          2128.0,
          2135.0,
          2140.0,
          2132.0,
          2130.0,
          2134.0,
          2145.0,
          2139.0,
          2131.0,
          2132.0,
          2132.0,
          2136.0,
          2134.0,
          2131.0,
          2129.0,
          2134.0,
          2146.0,
          2142.0,
          2132.0,
          2129.0,
          2129.0,
          2132.0,
          2139.0,
          2143.0,
          2136.0,
          2140.0,
          2136.0,
          2137.0,
          2140.0,
          2134.0,
          2134.0,
          2144.0,
          2144.0,
          2137.0,
          2131.0,
          2134.0,
          2129.0,
          2129.0,
          2128.0,
          2138.0,
          2137.0,
          2134.0,
          2135.0,
          2136.0,
          2131.0,
          2129.0,
          2130.0,
          2129.0,
          2126.0,
          2135.0,
          2137.0,
          2131.0,
          2136.0,
          2137.0,
          2128.0,
          2135.0,
          2134.0,
          2129.0,
          2130.0,
          2142.0,
          2144.0,
          2132.0,
          2129.0,
          2135.0,
          2136.0,
          2131.0,
          2133.0,
          2132.0,
          2130.0,
          2130.0,
          2129.0,
          2128.0,
          2130.0,
          2131.0,
          2132.0,
          2132.0,
          2133.0,
          2135.0,
          2136.0,
          2135.0,
          2138.0,
          2140.0,
          2138.0,
          2137.0,
          2135.0,
          2135.0,
          2135.0,
          2136.0,
          2139.0
        ]
      },
      "slices": {}
    }
  },
  "dummy_trs": 0,
  "dvars_nstd": 74.40314934181207,
  "dvars_std": 1.0516455093288588,
  "dvars_vstd": 1.0202946466442953,
  "efc": 0.5863686256236471,
  "fber": 214.30587768554688,
  "fd_mean": 0.07102184825138012,
  "fd_num": 4,
  "fd_perc": 2.6666666666666665,
  "fwhm_avg": 3.0512809193739456,
  "fwhm_x": 2.9257088033657928,
  "fwhm_y": 2.8566507481505474,
  "fwhm_z": 3.3714832066054976,
  "gcor": 0.00300747,
  "gsr_x": 0.054563503712415695,
  "gsr_y": 0.026754016056656837,
  "provenance": {
    "md5sum": "e9b4be7838119a3ec9d0a30576e6368a",
    "settings": {
      "fd_thres": 0.2,
      "testing": false
    },
    "software": "mriqc",
    "version": "22.0.6",
    "webapi_port": null,
    "webapi_url": "https://mriqc.nimh.nih.gov/api/v1"
  },
  "size_t": 150,
  "size_x": 188,
  "size_y": 188,
  "size_z": 46,
  "snr": 1.8856840315625165,
  "spacing_tr": 2.5999999046325684,
  "spacing_x": 1.0957447290420532,
  "spacing_y": 1.0957447290420532,
  "spacing_z": 1.0999995470046997,
  "summary_bg_k": 35.17396545502905,
  "summary_bg_mad": 40.7517944120959,
  "summary_bg_mean": 130.7078399658203,
  "summary_bg_median": 65.11333465576172,
  "summary_bg_n": 1030076.0,
  "summary_bg_p05": 32.64666748046875,
