{
  "aor": 0.00062248322147651,
  "aqi": 0.011270400335570472,
  "bids_meta": {
    "AcquisitionMatrixPE": 188,
    "AcquisitionNumber": 1,
    "AcquisitionTime": "19:04:23.502500",
    "BandwidthPerPixelPhaseEncode": 19.46,
    "BaseResolution": 188,
    "CogAtlasID": "TODO",
    "ConversionSoftware": "dcm2niix",
    "ConversionSoftwareVersion": "v1.0.20180606 GCC4.8.5",
    "DelayTime": 1.2,
    "DerivedVendorReportedEchoSpacing": 0.000820013,
    "DeviceSerialNumber": "18930",
    "DwellTime": 1.9e-06,
    "EchoTime": 0.02,
    "EffectiveEchoSpacing": 0.000273338,
    "FlipAngle": 80,
    "ImageComments": "Unaliased_MB2_PE2",
    "ImageOrientationPatientDICOM": [
      0.999913,
      -0.0104875,
      0.00803496,
      0.0100333,
      0.207118,
      -0.978265
    ],
    "ImageType": [
      "ORIGINAL",
      "PRIMARY",
      "M",
      "MB",
      "ND",
      "MOSAIC"
    ],
    "InPlanePhaseEncodingDirectionDICOM": "COL",
    "InstitutionAddress": "Oxfordlaan_55_Maastricht_753AAF_Limburg_NL_6229_EV",
    "InstitutionName": "Scannexus",
    "InstitutionalDepartmentName": "MRI_7T",
    "MRAcquisitionType": "2D",
    "MagneticFieldStrength": 6.98,
    "Manufacturer": "Siemens",
    "ManufacturersModelName": "Investigational_Device_7T",
    "Modality": "MR",
    "MultibandAccelerationFactor": 2,
    "ParallelReductionFactorInPlane": 3,
    "PartialFourier": 0.75,
    "PatientPosition": "HFS",
    "PercentPhaseFOV": 100,
    "PhaseEncodingDirection": "j",
    "PhaseEncodingSteps": 141,
    "PhaseResolution": 1,
    "PixelBandwidth": 1400,
    "ProcedureStepDescription": "FeDem_Faruk",
    "ProtocolName": "cmrr_mbep2d_bold_AP_run8",
    "PulseSequenceDetails": "%CustomerSeq%_cmrr_mbep2d_bold",
    "ReceiveCoilName": "32Ch_Head_7T",
    "ReconMatrixPE": 188,
    "RepetitionTime": 2.6,
    "SAR": 0.0756995,
    "ScanOptions": "PFP_FS",
    "ScanningSequence": "EP",
    "SequenceName": "epfid2d1_188",
    "SequenceVariant": "SK_SS",
    "SeriesDescription": "cmrr_mbep2d_bold_AP_run8",
    "SeriesNumber": 21,
    "ShimSetting": [
      112,
      -93,
      409,
      471,
      -90,
      78,
      246,
      177
    ],
    "SliceThickness": 1.1,
    "SliceTiming": [
      0,
      0.735,
      0.0625,
      0.795,
      0.1225,
      0.8575,
      0.185,
      0.9175,
      0.245,
      0.98,
      0.3075,
      1.04,
      0.3675,
      1.1,
      0.43,
      1.1625,
      0.49,
      1.2225,
      0.55,
      1.285,
      0.6125,
      1.345,
      0.6725,
      0,
      0.735,
      0.0625,
      0.795,
      0.1225,
      0.8575,
      0.185,
      0.9175,
      0.245,
      0.98,
      0.3075,
      1.04,
      0.3675,
      1.1,
      0.43,
      1.1625,
      0.49,
      1.2225,
      0.55,
      1.285,
      0.6125,
      1.345,
      0.6725
    ],
    "SoftwareVersions": "syngo_MR_B17",
    "SpacingBetweenSlices": 1.1,
    "StationName": "MRC18930",
    "TaskName": "auditory",
    "TotalReadoutTime": 0.0511141,
    "TxRefAmp": 230,
    "dataset": "ds001942",
    "dcmmeta_affine": [
      [
        -1.0956491231918335,
        0.010993985459208488,
        -0.009454931132495403,
        102.07075500488281
      ],
      [
        0.011491656303405762,
        0.22694826126098633,
        -1.0760853290557861,
        23.640270233154297
      ],
      [
        0.008804263547062874,
        1.0719282627105713,
        0.2279253751039505,
        -120.88667297363281
      ],
      [
        0.0,
        0.0,
        0.0,
        1.0
      ]
    ],
    "dcmmeta_reorient_transform": [
      [
        0.0,
        -1.0,
        0.0,
        187.0
      ],
      [
        1.0,
        0.0,
        0.0,
        0.0
      ],
      [
        0.0,
        0.0,
        1.0,
        0.0
      ],
      [
        0.0,
        0.0,
        0.0,
        1.0
      ]
    ],
    "dcmmeta_shape": [
      188,
      188,
      46,
      150
    ],
    "dcmmeta_slice_dim": 2,
    "dcmmeta_version": 0.6,
    "global": {
      "const": {
        "AcquisitionMatrix": [
          188,
          0,
          0,
          188
        ],
        "AngioFlag": "N",
        "BitsAllocated": 16,
        "BitsStored": 12,
        "Columns": 1316,
        "EchoNumbers": 1,
        "EchoTime": 20.0,
        "EchoTrainLength": 1,
        "FlipAngle": 80.0,
        "HighBit": 11,
        "ImageOrientationPatient": [
          0.99991272176587,
          -0.0104875304168,
          0.00803495840217,
          0.01003334518996,
          0.207117825706,
          -0.9782645543303
        ],
        "ImagePositionPatient": [
          -728.27332586475,
          -187.59712455365,
          679.165822268
        ],
        "ImageType": [
          "ORIGINAL",
          "PRIMARY",
          "M",
          "MB",
          "ND",
          "MOSAIC"
        ],
        "ImagedNucleus": "1H",
        "ImagingFrequency": 297.205605,
        "InPlanePhaseEncodingDirection": "COL",
        "LargestImagePixelValue": 4095,
        "MRAcquisitionType": "2D",
        "MagneticFieldStrength": 6.98,
        "Manufacturer": "SIEMENS",
        "ManufacturerModelName": "Investigational_Device_7T",
        "Modality": "MR",
        "NumberOfAverages": 1.0,
        "NumberOfPhaseEncodingSteps": 141,
        "PercentPhaseFieldOfView": 100.0,
        "PercentSampling": 100.0,
        "PerformedProcedureStepStartTime": "174020.343000",
        "PhotometricInterpretation": "MONOCHROME2",
        "PixelBandwidth": 1400.0,
        "PixelRepresentation": 0,
        "PixelSpacing": [
          1.0957447290421,
          1.0957447290421
        ],
        "ProtocolName": "cmrr_mbep2d_bold_AP_run8",
        "RepetitionTime": 2600.0,
        "Rows": 1316,
        "SAR": 0.07569947571108,
        "SamplesPerPixel": 1,
        "ScanOptions": [
          "PFP",
          "FS"
        ],
        "ScanningSequence": "EP",
        "SequenceName": "epfid2d1_188",
        "SequenceVariant": [
          "SK",
          "SS"
        ],
        "SeriesDescription": "cmrr_mbep2d_bold_AP_run8",
        "SeriesNumber": 21,
        "SeriesTime": "190433.062000",
        "SliceLocation": -49.05198509884,
        "SliceThickness": 1.1000000238419,
        "SmallestImagePixelValue": 0,
        "SoftwareVersions": "syngo MR B17",
        "SpacingBetweenSlices": 1.0999995139051,
        "SpecificCharacterSet": "ISO_IR 100",
        "StudyID": "1",
        "StudyTime": "174020.281000",
        "TransmitCoilName": "32Ch_Head_7T",
        "VariableFlipAngleFlag": "N",
        "WindowCenterWidthExplanation": "Algo1",
        "dBdt": 0.0
      },
      "slices": {}
    },
    "modality": "bold",
    "run_id": 8,
    "session_id": "SES02",
    "subject_id": "S10",
    "task_id": "auditory",
    "time": {
      "samples": {
        "AcquisitionNumber": [
          1,
          2,
          3,
          4,
          5,
          6,
          7,
          8,
          9,
          10,
          11,
          12,
          13,
          14,
          15,
          16,
          17,
          18,
          19,
          20,
          21,
          22,
          23,
          24,
          25,
          26,
          27,
          28,
          29,
          30,
          31,
          32,
          33,
          34,
          35,
          36,
          37,
          38,
          39,
          40,
          41,
          42,
          43,
          44,
          45,
          46,
          47,
          48,
          49,
          50,
          51,
          52,
          53,
          54,
          55,
          56,
          57,
          58,
          59,
          60,
          61,
          62,
          63,
          64,
          65,
          66,
          67,
          68,
          69,
          70,
          71,
          72,
          73,
          74,
          75,
          76,
          77,
          78,
          79,
          80,
          81,
          82,
          83,
          84,
          85,
          86,
          87,
          88,
          89,
          90,
          91,
          92,
          93,
          94,
          95,
          96,
          97,
          98,
          99,
          100,
          101,
          102,
          103,
          104,
          105,
          106,
          107,
          108,
          109,
          110,
          111,
          112,
          113,
          114,
          115,
          116,
          117,
          118,
          119,
          120,
          121,
          122,
          123,
          124,
          125,
          126,
          127,
          128,
          129,
          130,
          131,
          132,
          133,
          134,
          135,
          136,
          137,
          138,
          139,
          140,
          141,
          142,
          143,
          144,
          145,
          146,
          147,
          148,
          149,
          150
        ],
        "AcquisitionTime": [
          "190423.502500",
          "190426.115000",
          "190428.725000",
          "190431.335000",
          "190433.945000",
          "190436.555000",
          "190439.167500",
          "190441.777500",
          "190444.387500",
          "190446.997500",
          "190449.607500",
          "190452.217500",
          "190454.830000",
          "190457.440000",
          "190500.050000",
          "190502.660000",
          "190505.270000",
          "190507.880000",
          "190510.492500",
          "190513.102500",
          "190515.712500",
          "190518.322500",
          "190520.932500",
          "190523.545000",
          "190526.155000",
          "190528.765000",
          "190531.375000",
          "190533.985000",
          "190536.595000",
          "190539.207500",
          "190541.817500",
          "190544.427500",
          "190547.037500",
          "190549.647500",
          "190552.257500",
          "190554.870000",
          "190557.480000",
          "190600.090000",
          "190602.700000",
          "190605.310000",
          "190607.922500",
          "190610.532500",
          "190613.142500",
          "190615.752500",
          "190618.362500",
          "190620.972500",
          "190623.585000",
          "190626.195000",
          "190628.805000",
          "190631.415000",
          "190634.025000",
          "190636.635000",
          "190639.247500",
          "190641.857500",
          "190644.467500",
          "190647.077500",
          "190649.687500",
          "190652.300000",
          "190654.910000",
          "190657.520000",
          "190700.130000",
          "190702.740000",
          "190705.350000",
          "190707.962500",
          "190710.572500",
          "190713.182500",
          "190715.792500",
          "190718.402500",
          "190721.012500",
          "190723.625000",
          "190726.235000",
          "190728.845000",
          "190731.455000",
          "190734.065000",
          "190736.677500",
          "190739.287500",
          "190741.897500",
          "190744.507500",
          "190747.117500",
          "190749.727500",
          "190752.340000",
          "190754.950000",
          "190757.560000",
          "190800.170000",
          "190802.780000",
          "190805.390000",
          "190808.002500",
          "190810.612500",
          "190813.222500",
          "190815.832500",
          "190818.442500",
          "190821.055000",
          "190823.665000",
          "190826.275000",
          "190828.885000",
          "190831.495000",
          "190834.105000",
          "190836.717500",
          "190839.327500",
          "190841.937500",
          "190844.547500",
          "190847.157500",
          "190849.767500",
          "190852.380000",
          "190854.990000",
          "190857.600000",
          "190900.210000",
          "190902.820000",
          "190905.432500",
          "190908.042500",
          "190910.652500",
          "190913.262500",
          "190915.872500",
          "190918.482500",
          "190921.095000",
          "190923.705000",
          "190926.315000",
          "190928.925000",
          "190931.535000",
          "190934.145000",
          "190936.757500",
          "190939.367500",
          "190941.977500",
          "190944.587500",
          "190947.197500",
          "190949.810000",
          "190952.420000",
          "190955.030000",
          "190957.640000",
          "191000.250000",
          "191002.860000",
          "191005.472500",
          "191008.082500",
          "191010.692500",
          "191013.302500",
          "191015.912500",
          "191018.525000",
          "191021.135000",
          "191023.745000",
          "191026.355000",
          "191028.965000",
          "191031.575000",
          "191034.187500",
          "191036.797500",
          "191039.407500",
          "191042.017500",
          "191044.627500",
          "191047.237500",
          "191049.850000",
          "191052.460000"
        ],
        "ContentTime": [
          "190433.062000",
          "190434.062000",
          "190434.062000",
          "190436.562000",
          "190439.062000",
          "190441.562000",
          "190444.062000",
          "190446.562000",
          "190449.562000",
          "190452.062000",
          "190454.562000",
          "190457.062000",
          "190459.562000",
          "190502.562000",
          "190505.062000",
          "190507.562000",
          "190510.062000",
          "190512.562000",
          "190515.562000",
          "190518.062000",
          "190520.562000",
          "190523.062000",
          "190525.562000",
          "190528.562000",
          "190531.062000",
          "190533.562000",
          "190536.062000",
          "190538.562000",
          "190541.562000",
          "190544.062000",
          "190546.562000",
          "190549.062000",
          "190551.562000",
          "190554.562000",
          "190557.062000",
          "190559.562000",
          "190602.062000",
          "190604.562000",
          "190607.562000",
          "190610.062000",
          "190612.562000",
          "190615.062000",
          "190617.562000",
          "190620.562000",
          "190623.062000",
          "190625.562000",
          "190628.062000",
          "190630.562000",
          "190633.562000",
          "190636.062000",
          "190638.562000",
          "190641.062000",
          "190643.562000",
          "190646.562000",
          "190649.062000",
          "190651.562000",
          "190654.062000",
          "190656.562000",
          "190659.562000",
          "190702.062000",
          "190704.562000",
          "190707.062000",
          "190709.562000",
          "190712.562000",
          "190715.062000",
          "190717.562000",
          "190720.062000",
          "190722.562000",
          "190725.562000",
          "190728.062000",
          "190730.562000",
          "190733.062000",
          "190735.562000",
          "190738.562000",
          "190741.062000",
          "190743.562000",
          "190746.062000",
          "190748.562000",
          "190751.562000",
          "190754.062000",
          "190756.562000",
          "190759.062000",
          "190801.562000",
          "190804.562000",
          "190807.062000",
          "190809.562000",
          "190812.062000",
          "190814.562000",
          "190817.562000",
          "190820.062000",
          "190822.562000",
          "190825.062000",
          "190827.562000",
          "190830.562000",
          "190833.062000",
          "190835.562000",
          "190838.062000",
          "190840.562000",
          "190843.562000",
          "190846.062000",
          "190848.562000",
          "190851.062000",
          "190853.562000",
          "190856.562000",
          "190859.062000",
          "190901.562000",
          "190904.062000",
          "190906.562000",
          "190909.562000",
          "190912.062000",
          "190914.562000",
          "190917.062000",
          "190919.562000",
          "190922.562000",
          "190925.062000",
          "190927.562000",
          "190930.062000",
          "190932.562000",
          "190935.562000",
          "190938.062000",
          "190940.562000",
          "190943.062000",
          "190945.562000",
          "190948.562000",
          "190951.062000",
          "190953.562000",
          "190956.062000",
          "190958.562000",
          "191001.562000",
          "191004.062000",
          "191006.562000",
          "191009.062000",
          "191011.562000",
          "191014.562000",
          "191017.062000",
          "191019.562000",
          "191022.062000",
          "191024.562000",
          "191027.562000",
          "191030.062000",
          "191032.562000",
          "191035.062000",
          "191037.562000",
          "191040.562000",
          "191043.062000",
          "191045.562000",
          "191048.062000",
          "191050.562000",
          "191053.562000",
          "191100.687000"
        ],
        "InstanceCreationTime": [
          "190433.062000",
          "190434.062000",
          "190434.062000",
          "190436.562000",
          "190439.062000",
          "190441.562000",
          "190444.062000",
          "190446.562000",
          "190449.562000",
          "190452.062000",
          "190454.562000",
          "190457.062000",
          "190459.562000",
          "190502.562000",
          "190505.062000",
          "190507.562000",
          "190510.062000",
          "190512.562000",
          "190515.562000",
          "190518.062000",
          "190520.562000",
          "190523.062000",
          "190525.562000",
          "190528.562000",
          "190531.062000",
          "190533.562000",
          "190536.062000",
          "190538.562000",
          "190541.562000",
          "190544.062000",
          "190546.562000",
          "190549.062000",
          "190551.562000",
          "190554.562000",
          "190557.062000",
          "190559.562000",
          "190602.062000",
          "190604.562000",
          "190607.562000",
          "190610.062000",
          "190612.562000",
          "190615.062000",
          "190617.562000",
          "190620.562000",
          "190623.062000",
          "190625.562000",
          "190628.062000",
          "190630.562000",
          "190633.562000",
          "190636.062000",
          "190638.562000",
          "190641.062000",
          "190643.562000",
          "190646.562000",
          "190649.062000",
          "190651.562000",
          "190654.062000",
          "190656.562000",
          "190659.562000",
          "190702.062000",
          "190704.562000",
          "190707.062000",
          "190709.562000",
          "190712.562000",
          "190715.062000",
          "190717.562000",
          "190720.062000",
          "190722.562000",
          "190725.562000",
          "190728.062000",
          "190730.562000",
          "190733.062000",
          "190735.562000",
          "190738.562000",
          "190741.062000",
          "190743.562000",
          "190746.062000",
          "190748.562000",
          "190751.562000",
          "190754.062000",
          "190756.562000",
          "190759.062000",
          "190801.562000",
          "190804.562000",
          "190807.062000",
          "190809.562000",
          "190812.062000",
          "190814.562000",
          "190817.562000",
          "190820.062000",
          "190822.562000",
          "190825.062000",
          "190827.562000",
          "190830.562000",
          "190833.062000",
          "190835.562000",
          "190838.062000",
          "190840.562000",
          "190843.562000",
          "190846.062000",
          "190848.562000",
          "190851.062000",
          "190853.562000",
          "190856.562000",
          "190859.062000",
          "190901.562000",
          "190904.062000",
          "190906.562000",
          "190909.562000",
          "190912.062000",
          "190914.562000",
          "190917.062000",
          "190919.562000",
          "190922.562000",
          "190925.062000",
          "190927.562000",
          "190930.062000",
          "190932.562000",
          "190935.562000",
          "190938.062000",
          "190940.562000",
          "190943.062000",
          "190945.562000",
          "190948.562000",
          "190951.062000",
          "190953.562000",
          "190956.062000",
          "190958.562000",
          "191001.562000",
          "191004.062000",
          "191006.562000",
          "191009.062000",
          "191011.562000",
          "191014.562000",
          "191017.062000",
          "191019.562000",
          "191022.062000",
          "191024.562000",
          "191027.562000",
          "191030.062000",
          "191032.562000",
          "191035.062000",
          "191037.562000",
          "191040.562000",
          "191043.062000",
          "191045.562000",
          "191048.062000",
          "191050.562000",
          "191053.562000",
          "191100.687000"
        ],
        "InstanceNumber": [
          1,
          2,
          3,
          4,
          5,
          6,
          7,
          8,
          9,
          10,
          11,
          12,
          13,
          14,
          15,
          16,
          17,
          18,
          19,
          20,
          21,
          22,
          23,
          24,
          25,
          26,
          27,
          28,
          29,
          30,
          31,
          32,
          33,
          34,
          35,
          36,
          37,
          38,
          39,
          40,
          41,
          42,
          43,
          44,
          45,
          46,
          47,
          48,
          49,
          50,
          51,
          52,
          53,
          54,
          55,
          56,
          57,
          58,
          59,
          60,
          61,
          62,
          63,
          64,
          65,
          66,
          67,
          68,
          69,
          70,
          71,
          72,
          73,
          74,
          75,
          76,
          77,
          78,
          79,
          80,
          81,
          82,
          83,
          84,
          85,
          86,
          87,
          88,
          89,
          90,
          91,
          92,
          93,
          94,
          95,
          96,
          97,
          98,
          99,
          100,
          101,
          102,
          103,
          104,
          105,
          106,
          107,
          108,
          109,
          110,
          111,
          112,
          113,
          114,
          115,
          116,
          117,
          118,
          119,
          120,
          121,
          122,
          123,
          124,
          125,
          126,
          127,
          128,
          129,
          130,
          131,
          132,
          133,
          134,
          135,
          136,
          137,
          138,
          139,
          140,
          141,
          142,
          143,
          144,
          145,
          146,
          147,
          148,
          149,
          150
        ],
        "WindowCenter": [
          938.0,
          936.0,
          935.0,
          934.0,
          934.0,
          934.0,
          934.0,
          934.0,
          934.0,
          934.0,
          934.0,
          935.0,
          934.0,
          934.0,
          934.0,
          935.0,
          934.0,
          934.0,
          934.0,
          935.0,
          933.0,
          933.0,
          934.0,
          935.0,
          934.0,
          934.0,
          933.0,
          932.0,
          932.0,
          933.0,
          933.0,
          933.0,
          932.0,
          933.0,
          933.0,
          932.0,
          932.0,
          933.0,
          933.0,
          932.0,
          934.0,
          934.0,
          933.0,
          933.0,
          933.0,
          934.0,
          933.0,
          932.0,
          934.0,
          935.0,
          933.0,
          933.0,
          935.0,
          934.0,
          934.0,
          934.0,
          934.0,
          934.0,
          934.0,
          934.0,
          933.0,
          932.0,
          933.0,
          934.0,
          933.0,
          932.0,
          933.0,
          932.0,
          932.0,
          934.0,
          934.0,
          932.0,
          932.0,
          934.0,
          933.0,
          932.0,
          932.0,
          933.0,
          933.0,
          934.0,
          933.0,
          932.0,
          933.0,
          933.0,
          932.0,
          933.0,
          934.0,
          932.0,
          932.0,
          933.0,
          933.0,
          933.0,
          933.0,
          935.0,
          933.0,
          932.0,
          932.0,
          933.0,
          932.0,
          932.0,
          932.0,
          932.0,
          932.0,
          932.0,
          932.0,
          932.0,
          933.0,
          932.0,
          932.0,
          931.0,
          932.0,
          932.0,
          932.0,
          933.0,
          932.0,
          931.0,
          930.0,
          932.0,
          934.0,
          932.0,
          932.0,
          932.0,
          931.0,
          932.0,
          934.0,
          932.0,
          932.0,
          932.0,
          932.0,
          931.0,
          933.0,
          934.0,
          932.0,
          931.0,
          931.0,
          932.0,
          933.0,
          933.0,
          933.0,
          933.0,
          933.0,
          933.0,
          933.0,
          934.0,
          935.0,
          933.0,
          932.0,
          933.0,
          934.0,
          933.0
        ],
        "WindowWidth": [
          2150.0,
          2144.0,
          2140.0,
          2138.0,
          2138.0,
          2138.0,
          2139.0,
          2139.0,
          2138.0,
          2138.0,
          2139.0,
          2142.0,
          2140.0,
          2138.0,
          2138.0,
          2143.0,
          2138.0,
          2138.0,
          2139.0,
          2141.0,
          2135.0,
          2136.0,
          2138.0,
          2140.0,
          2138.0,
          2137.0,
          2135.0,
          2134.0,
          2132.0,
          2135.0,
          2135.0,
          2136.0,
          2134.0,
          2137.0,
          2136.0,
          2134.0,
          2135.0,
          2136.0,
          2136.0,
          2134.0,
          2138.0,
          2139.0,
          2136.0,
          2135.0,
          2137.0,
          2138.0,
          2136.0,
          2134.0,
          2139.0,
          2142.0,
          2135.0,
          2136.0,
          2141.0,
          2140.0,
          2138.0,
          2138.0,
          2139.0,
          2140.0,
          2137.0,
          2138.0,
          2135.0,
          2132.0,
          2136.0,
          2138.0,
          2135.0,
          2134.0,
          2137.0,
          2135.0,
          2133.0,
          2140.0,
          2139.0,
          2133.0,
          2133.0,
          2138.0,
          2134.0,
          2131.0,
          2132.0,
          2135.0,
          2134.0,
          2137.0,
          2134.0,
          2133.0,
          2136.0,
          2133.0,
          2133.0,
          2136.0,
          2139.0,
          2133.0,
          2131.0,
          2134.0,
          2136.0,
          2135.0,
          2137.0,
          2143.0,
          2137.0,
          2131.0,
          2134.0,
          2136.0,
          2132.0,
          2134.0,
          2131.0,
          2133.0,
          2132.0,
          2134.0,
          2134.0,
          2134.0,
          2135.0,
          2133.0,
          2133.0,
          2131.0,
          2133.0,
          2134.0,
          2133.0,
          2134.0,
          2133.0,
          2128.0,
          2128.0,
          2135.0,
          2138.0,
          2132.0,
          2132.0,
          2134.0,
          2130.0,
          2135.0,
          2138.0,
          2131.0,
          2132.0,
          2131.0,
          2131.0,
          2130.0,
          2135.0,
          2138.0,
          2133.0,
          2130.0,
          2129.0,
          2132.0,
          2134.0,
          2135.0,
          2135.0,
          2133.0,
          2135.0,
          2134.0,
          2135.0,
          2139.0,
          2141.0,
          2135.0,
          2132.0,
          2135.0,
          2137.0,
          2134.0
        ]
      },
      "slices": {}
    }
  },
  "dummy_trs": 1,
  "dvars_nstd": 72.69018683560812,
  "dvars_std": 1.0362704985810813,
  "dvars_vstd": 1.0058063946621623,
  "efc": 0.586342491933304,
  "fber": 212.3310089111328,
  "fd_mean": 0.04470793392984549,
  "fd_num": 0,
  "fd_perc": 0.0,
  "fwhm_avg": 3.0387971352832435,
  "fwhm_x": 2.907949192496377,
  "fwhm_y": 2.8446862826573285,
  "fwhm_z": 3.3637559306960254,
  "gcor": 0.00170893,
  "gsr_x": 0.05607055127620697,
  "gsr_y": 0.024375468492507935,
  "provenance": {
    "md5sum": "72b952c70eeda398b6ea01d050243181",
    "settings": {
      "fd_thres": 0.2,
      "testing": false
    },
    "software": "mriqc",
    "version": "22.0.6",
    "webapi_port": null,
    "webapi_url": "https://mriqc.nimh.nih.gov/api/v1"
  },
  "size_t": 149,
  "size_x": 188,
  "size_y": 188,
  "size_z": 46,
  "snr": 1.8826897065050243,
  "spacing_tr": 2.5999999046325684,
  "spacing_x": 1.0957447290420532,
  "spacing_y": 1.0957447290420532,
  "spacing_z": 1.0999995470046997,
  "summary_bg_k": 34.86147876447252,
  "summary_bg_mad": 40.965590375627194,
  "summary_bg_mean": 131.2081298828125,
  "summary_bg_median": 65.47650909423828,
  "summary_bg_n": 1031247.0,
  "summary_bg_p05": 32.899330139160156,
  "summary_bg_p95": 418.92013549804597,
