{
  "aor": 0.0006130405405405405,
  "aqi": 0.010545042364864865,
  "bids_meta": {
    "AcquisitionMatrixPE": 188,
    "AcquisitionNumber": 1,
    "AcquisitionTime": "18:38:21.010000",
    "BandwidthPerPixelPhaseEncode": 19.46,
    "BaseResolution": 188,
    "CogAtlasID": "TODO",
    "ConversionSoftware": "dcm2niix",
    "ConversionSoftwareVersion": "v1.0.20180606 GCC4.8.5",
    "DelayTime": 1.2,
    "DerivedVendorReportedEchoSpacing": 0.000820013,
    "DeviceSerialNumber": "18930",
    "DwellTime": 1.9e-06,
    "EchoTime": 0.02,
    "EffectiveEchoSpacing": 0.000273338,
    "FlipAngle": 80,
    "ImageComments": "Unaliased_MB2_PE2",
    "ImageOrientationPatientDICOM": [
      0.999913,
      -0.0104875,
      0.00803496,
      0.0100333,
      0.207118,
      -0.978265
    ],
    "ImageType": [
      "ORIGINAL",
      "PRIMARY",
      "M",
      "MB",
      "ND",
      "MOSAIC"
    ],
    "InPlanePhaseEncodingDirectionDICOM": "COL",
    "InstitutionAddress": "Oxfordlaan_55_Maastricht_753AAF_Limburg_NL_6229_EV",
    "InstitutionName": "Scannexus",
    "InstitutionalDepartmentName": "MRI_7T",
    "MRAcquisitionType": "2D",
    "MagneticFieldStrength": 6.98,
    "Manufacturer": "Siemens",
    "ManufacturersModelName": "Investigational_Device_7T",
    "Modality": "MR",
    "MultibandAccelerationFactor": 2,
    "ParallelReductionFactorInPlane": 3,
    "PartialFourier": 0.75,
    "PatientPosition": "HFS",
    "PercentPhaseFOV": 100,
    "PhaseEncodingDirection": "j",
    "PhaseEncodingSteps": 141,
    "PhaseResolution": 1,
    "PixelBandwidth": 1400,
    "ProcedureStepDescription": "FeDem_Faruk",
    "ProtocolName": "cmrr_mbep2d_bold_AP_run5",
    "PulseSequenceDetails": "%CustomerSeq%_cmrr_mbep2d_bold",
    "ReceiveCoilName": "32Ch_Head_7T",
    "ReconMatrixPE": 188,
    "RepetitionTime": 2.6,
    "SAR": 0.0756615,
    "ScanOptions": "PFP_FS",
    "ScanningSequence": "EP",
    "SequenceName": "epfid2d1_188",
    "SequenceVariant": "SK_SS",
    "SeriesDescription": "cmrr_mbep2d_bold_AP_run5",
    "SeriesNumber": 16,
    "ShimSetting": [
      112,
      -93,
      409,
      471,
      -90,
      78,
      246,
      177
    ],
    "SliceThickness": 1.1,
    "SliceTiming": [
      0,
      0.735,
      0.0625,
      0.795,
      0.1225,
      0.8575,
      0.185,
      0.9175,
      0.245,
      0.98,
      0.3075,
      1.04,
      0.3675,
      1.1,
      0.43,
      1.1625,
      0.49,
      1.2225,
      0.55,
      1.285,
      0.6125,
      1.345,
      0.6725,
      0,
      0.735,
      0.0625,
      0.795,
      0.1225,
      0.8575,
      0.185,
      0.9175,
      0.245,
      0.98,
      0.3075,
      1.04,
      0.3675,
      1.1,
      0.43,
      1.1625,
      0.49,
      1.2225,
      0.55,
      1.285,
      0.6125,
      1.345,
      0.6725
    ],
    "SoftwareVersions": "syngo_MR_B17",
    "SpacingBetweenSlices": 1.1,
    "StationName": "MRC18930",
    "TaskName": "auditory",
    "TotalReadoutTime": 0.0511141,
    "TxRefAmp": 230,
    "dataset": "ds001942",
    "dcmmeta_affine": [
      [
        -1.0956491231918335,
        0.010993985459208488,
        -0.009454931132495403,
        102.07075500488281
      ],
      [
        0.011491656303405762,
        0.22694826126098633,
        -1.0760853290557861,
        23.640270233154297
      ],
      [
        0.008804263547062874,
        1.0719282627105713,
        0.2279253751039505,
        -120.88667297363281
      ],
      [
        0.0,
        0.0,
        0.0,
        1.0
      ]
    ],
    "dcmmeta_reorient_transform": [
      [
        0.0,
        -1.0,
        0.0,
        187.0
      ],
      [
        1.0,
        0.0,
        0.0,
        0.0
      ],
      [
        0.0,
        0.0,
        1.0,
        0.0
      ],
      [
        0.0,
        0.0,
        0.0,
        1.0
      ]
    ],
    "dcmmeta_shape": [
      188,
      188,
      46,
      150
    ],
    "dcmmeta_slice_dim": 2,
    "dcmmeta_version": 0.6,
    "global": {
      "const": {
        "AcquisitionMatrix": [
          188,
          0,
          0,
          188
        ],
        "AngioFlag": "N",
        "BitsAllocated": 16,
        "BitsStored": 12,
        "Columns": 1316,
        "EchoNumbers": 1,
        "EchoTime": 20.0,
        "EchoTrainLength": 1,
        "FlipAngle": 80.0,
        "HighBit": 11,
        "ImageOrientationPatient": [
          0.99991272176587,
          -0.0104875304168,
          0.00803495840217,
          0.01003334518996,
          0.207117825706,
          -0.9782645543303
        ],
        "ImagePositionPatient": [
          -728.27332586475,
          -187.59712455365,
          679.165822268
        ],
        "ImageType": [
          "ORIGINAL",
          "PRIMARY",
          "M",
          "MB",
          "ND",
          "MOSAIC"
        ],
        "ImagedNucleus": "1H",
        "ImagingFrequency": 297.2056,
        "InPlanePhaseEncodingDirection": "COL",
        "LargestImagePixelValue": 4095,
        "MRAcquisitionType": "2D",
        "MagneticFieldStrength": 6.98,
        "Manufacturer": "SIEMENS",
        "ManufacturerModelName": "Investigational_Device_7T",
        "Modality": "MR",
        "NumberOfAverages": 1.0,
        "NumberOfPhaseEncodingSteps": 141,
        "PercentPhaseFieldOfView": 100.0,
        "PercentSampling": 100.0,
        "PerformedProcedureStepStartTime": "174020.343000",
        "PhotometricInterpretation": "MONOCHROME2",
        "PixelBandwidth": 1400.0,
        "PixelRepresentation": 0,
        "PixelSpacing": [
          1.0957447290421,
          1.0957447290421
        ],
        "ProtocolName": "cmrr_mbep2d_bold_AP_run5",
        "RepetitionTime": 2600.0,
        "Rows": 1316,
        "SAR": 0.07566153203054,
        "SamplesPerPixel": 1,
        "ScanOptions": [
          "PFP",
          "FS"
        ],
        "ScanningSequence": "EP",
        "SequenceName": "epfid2d1_188",
        "SequenceVariant": [
          "SK",
          "SS"
        ],
        "SeriesDescription": "cmrr_mbep2d_bold_AP_run5",
        "SeriesNumber": 16,
        "SeriesTime": "183829.890000",
        "SliceLocation": -49.05198509884,
        "SliceThickness": 1.1000000238419,
        "SmallestImagePixelValue": 0,
        "SoftwareVersions": "syngo MR B17",
        "SpacingBetweenSlices": 1.0999995139051,
        "SpecificCharacterSet": "ISO_IR 100",
        "StudyID": "1",
        "StudyTime": "174020.281000",
        "TransmitCoilName": "32Ch_Head_7T",
        "VariableFlipAngleFlag": "N",
        "WindowCenterWidthExplanation": "Algo1",
        "dBdt": 0.0
      },
      "slices": {}
    },
    "modality": "bold",
    "run_id": 5,
    "session_id": "SES02",
    "subject_id": "S10",
    "task_id": "auditory",
    "time": {
      "samples": {
        "AcquisitionNumber": [
          1,
          2,
          3,
          4,
          5,
          6,
          7,
          8,
          9,
          10,
          11,
          12,
          13,
          14,
          15,
          16,
          17,
          18,
          19,
          20,
          21,
          22,
          23,
          24,
          25,
          26,
          27,
          28,
          29,
          30,
          31,
          32,
          33,
          34,
          35,
          36,
          37,
          38,
          39,
          40,
          41,
          42,
          43,
          44,
          45,
          46,
          47,
          48,
          49,
          50,
          51,
          52,
          53,
          54,
          55,
          56,
          57,
          58,
          59,
          60,
          61,
          62,
          63,
          64,
          65,
          66,
          67,
          68,
          69,
          70,
          71,
          72,
          73,
          74,
          75,
          76,
          77,
          78,
          79,
          80,
          81,
          82,
          83,
          84,
          85,
          86,
          87,
          88,
          89,
          90,
          91,
          92,
          93,
          94,
          95,
          96,
          97,
          98,
          99,
          100,
          101,
          102,
          103,
          104,
          105,
          106,
          107,
          108,
          109,
          110,
          111,
          112,
          113,
          114,
          115,
          116,
          117,
          118,
          119,
          120,
          121,
          122,
          123,
          124,
          125,
          126,
          127,
          128,
          129,
          130,
          131,
          132,
          133,
          134,
          135,
          136,
          137,
          138,
          139,
          140,
          141,
          142,
          143,
          144,
          145,
          146,
          147,
          148,
          149,
          150
        ],
        "AcquisitionTime": [
          "183821.010000",
          "183823.622500",
          "183826.232500",
          "183828.842500",
          "183831.452500",
          "183834.062500",
          "183836.675000",
          "183839.285000",
          "183841.895000",
          "183844.505000",
          "183847.115000",
          "183849.725000",
          "183852.337500",
          "183854.947500",
          "183857.557500",
          "183900.167500",
          "183902.777500",
          "183905.387500",
          "183908.000000",
          "183910.610000",
          "183913.220000",
          "183915.830000",
          "183918.440000",
          "183921.052500",
          "183923.662500",
          "183926.272500",
          "183928.882500",
          "183931.492500",
          "183934.102500",
          "183936.715000",
          "183939.325000",
          "183941.935000",
          "183944.545000",
          "183947.155000",
          "183949.765000",
          "183952.377500",
          "183954.987500",
          "183957.597500",
          "184000.207500",
          "184002.817500",
          "184005.430000",
          "184008.040000",
          "184010.650000",
          "184013.260000",
          "184015.870000",
          "184018.480000",
          "184021.092500",
          "184023.702500",
          "184026.312500",
          "184028.922500",
          "184031.532500",
          "184034.142500",
          "184036.755000",
          "184039.365000",
          "184041.975000",
          "184044.585000",
          "184047.195000",
          "184049.807500",
          "184052.417500",
          "184055.027500",
          "184057.637500",
          "184100.247500",
          "184102.857500",
          "184105.470000",
          "184108.080000",
          "184110.690000",
          "184113.300000",
          "184115.910000",
          "184118.520000",
          "184121.132500",
          "184123.742500",
          "184126.352500",
          "184128.962500",
          "184131.572500",
          "184134.185000",
          "184136.795000",
          "184139.405000",
          "184142.015000",
          "184144.625000",
          "184147.235000",
          "184149.847500",
          "184152.457500",
          "184155.067500",
          "184157.677500",
          "184200.287500",
          "184202.897500",
          "184205.510000",
          "184208.120000",
          "184210.730000",
          "184213.340000",
          "184215.950000",
          "184218.562500",
          "184221.172500",
          "184223.782500",
          "184226.392500",
          "184229.002500",
          "184231.612500",
          "184234.225000",
          "184236.835000",
          "184239.445000",
          "184242.055000",
          "184244.665000",
          "184247.275000",
          "184249.887500",
          "184252.497500",
          "184255.107500",
          "184257.717500",
          "184300.327500",
          "184302.940000",
          "184305.550000",
          "184308.160000",
          "184310.770000",
          "184313.380000",
          "184315.990000",
          "184318.602500",
          "184321.212500",
          "184323.822500",
          "184326.432500",
          "184329.042500",
          "184331.652500",
          "184334.265000",
          "184336.875000",
          "184339.485000",
          "184342.095000",
          "184344.705000",
          "184347.317500",
          "184349.927500",
          "184352.537500",
          "184355.147500",
          "184357.757500",
          "184400.367500",
          "184402.980000",
          "184405.590000",
          "184408.200000",
          "184410.810000",
          "184413.420000",
          "184416.030000",
          "184418.642500",
          "184421.252500",
          "184423.862500",
          "184426.472500",
          "184429.082500",
          "184431.695000",
          "184434.305000",
          "184436.915000",
          "184439.525000",
          "184442.135000",
          "184444.745000",
          "184447.357500",
          "184449.967500"
        ],
        "ContentTime": [
          "183829.890000",
          "183830.390000",
          "183830.890000",
          "183833.390000",
          "183835.890000",
          "183838.390000",
          "183840.890000",
          "183843.890000",
          "183846.390000",
          "183848.890000",
          "183851.390000",
          "183853.890000",
          "183856.890000",
          "183859.390000",
          "183901.890000",
          "183904.390000",
          "183906.890000",
          "183909.890000",
          "183912.390000",
          "183914.890000",
          "183917.390000",
          "183919.890000",
          "183922.890000",
          "183925.390000",
          "183927.890000",
          "183930.390000",
          "183932.890000",
          "183935.890000",
          "183938.390000",
          "183940.890000",
          "183943.390000",
          "183945.890000",
          "183948.890000",
          "183951.390000",
          "183953.890000",
          "183956.390000",
          "183958.890000",
          "184001.890000",
          "184004.390000",
          "184006.890000",
          "184009.390000",
          "184011.890000",
          "184014.890000",
          "184017.390000",
          "184019.890000",
          "184022.390000",
          "184024.890000",
          "184027.890000",
          "184030.390000",
          "184032.890000",
          "184035.390000",
          "184037.890000",
          "184040.890000",
          "184043.390000",
          "184045.890000",
          "184048.390000",
          "184050.890000",
          "184053.890000",
          "184056.390000",
          "184058.890000",
          "184101.390000",
          "184103.890000",
          "184106.890000",
          "184109.390000",
          "184111.890000",
          "184114.390000",
          "184116.890000",
          "184119.890000",
          "184122.390000",
          "184124.890000",
          "184127.390000",
          "184129.890000",
          "184132.890000",
          "184135.390000",
          "184137.890000",
          "184140.390000",
          "184142.890000",
          "184145.890000",
          "184148.390000",
          "184150.890000",
          "184153.390000",
          "184155.890000",
          "184158.890000",
          "184201.390000",
          "184203.890000",
          "184206.390000",
          "184208.890000",
          "184211.890000",
          "184214.390000",
          "184216.890000",
          "184219.390000",
          "184221.890000",
          "184224.890000",
          "184227.390000",
          "184229.890000",
          "184232.390000",
          "184234.890000",
          "184237.890000",
          "184240.390000",
          "184242.890000",
          "184245.390000",
          "184247.890000",
          "184250.890000",
          "184253.390000",
          "184255.890000",
          "184258.390000",
          "184300.890000",
          "184303.890000",
          "184306.390000",
          "184308.890000",
          "184311.390000",
          "184313.890000",
          "184316.890000",
          "184319.390000",
          "184321.890000",
          "184324.390000",
          "184326.890000",
          "184329.890000",
          "184332.390000",
          "184334.890000",
          "184337.390000",
          "184339.890000",
          "184342.890000",
          "184345.390000",
          "184347.890000",
          "184350.390000",
          "184352.890000",
          "184355.890000",
          "184358.390000",
          "184400.890000",
          "184403.390000",
          "184405.890000",
          "184408.890000",
          "184411.390000",
          "184413.890000",
          "184416.390000",
          "184418.890000",
          "184421.890000",
          "184424.390000",
          "184426.890000",
          "184429.390000",
          "184431.890000",
          "184434.890000",
          "184437.390000",
          "184439.890000",
          "184442.390000",
          "184444.890000",
          "184447.890000",
          "184450.390000",
          "184457.625000"
        ],
        "InstanceCreationTime": [
          "183829.890000",
          "183830.390000",
          "183830.890000",
          "183833.390000",
          "183835.890000",
          "183838.390000",
          "183840.890000",
          "183843.890000",
          "183846.390000",
          "183848.890000",
          "183851.390000",
          "183853.890000",
          "183856.890000",
          "183859.390000",
          "183901.890000",
          "183904.390000",
          "183906.890000",
          "183909.890000",
          "183912.390000",
          "183914.890000",
          "183917.390000",
          "183919.890000",
          "183922.890000",
          "183925.390000",
          "183927.890000",
          "183930.390000",
          "183932.890000",
          "183935.890000",
          "183938.390000",
          "183940.890000",
          "183943.390000",
          "183945.890000",
          "183948.890000",
          "183951.390000",
          "183953.890000",
          "183956.390000",
          "183958.890000",
          "184001.890000",
          "184004.390000",
          "184006.890000",
          "184009.390000",
          "184011.890000",
          "184014.890000",
          "184017.390000",
          "184019.890000",
          "184022.390000",
          "184024.890000",
          "184027.890000",
          "184030.390000",
          "184032.890000",
          "184035.390000",
          "184037.890000",
          "184040.890000",
          "184043.390000",
          "184045.890000",
          "184048.390000",
          "184050.890000",
          "184053.890000",
          "184056.390000",
          "184058.890000",
          "184101.390000",
          "184103.890000",
          "184106.890000",
          "184109.390000",
          "184111.890000",
          "184114.390000",
          "184116.890000",
          "184119.890000",
          "184122.390000",
          "184124.890000",
          "184127.390000",
          "184129.890000",
          "184132.890000",
          "184135.390000",
          "184137.890000",
          "184140.390000",
          "184142.890000",
          "184145.890000",
          "184148.390000",
          "184150.890000",
          "184153.390000",
          "184155.890000",
          "184158.890000",
          "184201.390000",
          "184203.890000",
          "184206.390000",
          "184208.890000",
          "184211.890000",
          "184214.390000",
          "184216.890000",
          "184219.390000",
          "184221.890000",
          "184224.890000",
          "184227.390000",
          "184229.890000",
          "184232.390000",
          "184234.890000",
          "184237.890000",
          "184240.390000",
          "184242.890000",
          "184245.390000",
          "184247.890000",
          "184250.890000",
          "184253.390000",
          "184255.890000",
          "184258.390000",
          "184300.890000",
          "184303.890000",
          "184306.390000",
          "184308.890000",
          "184311.390000",
          "184313.890000",
          "184316.890000",
          "184319.390000",
          "184321.890000",
          "184324.390000",
          "184326.890000",
          "184329.890000",
          "184332.390000",
          "184334.890000",
          "184337.390000",
          "184339.890000",
          "184342.890000",
          "184345.390000",
          "184347.890000",
          "184350.390000",
          "184352.890000",
          "184355.890000",
          "184358.390000",
          "184400.890000",
          "184403.390000",
          "184405.890000",
          "184408.890000",
          "184411.390000",
          "184413.890000",
          "184416.390000",
          "184418.890000",
          "184421.890000",
          "184424.390000",
          "184426.890000",
          "184429.390000",
          "184431.890000",
          "184434.890000",
          "184437.390000",
          "184439.890000",
          "184442.390000",
          "184444.890000",
          "184447.890000",
          "184450.390000",
          "184457.625000"
        ],
        "InstanceNumber": [
          1,
          2,
          3,
          4,
          5,
          6,
          7,
          8,
          9,
          10,
          11,
          12,
          13,
          14,
          15,
          16,
          17,
          18,
          19,
          20,
          21,
          22,
          23,
          24,
          25,
          26,
          27,
          28,
          29,
          30,
          31,
          32,
          33,
          34,
          35,
          36,
          37,
          38,
          39,
          40,
          41,
          42,
          43,
          44,
          45,
          46,
          47,
          48,
          49,
          50,
          51,
          52,
          53,
          54,
          55,
          56,
          57,
          58,
          59,
          60,
          61,
          62,
          63,
          64,
          65,
          66,
          67,
          68,
          69,
          70,
          71,
          72,
          73,
          74,
          75,
          76,
          77,
          78,
          79,
          80,
          81,
          82,
          83,
          84,
          85,
          86,
          87,
          88,
          89,
          90,
          91,
          92,
          93,
          94,
          95,
          96,
          97,
          98,
          99,
          100,
          101,
          102,
          103,
          104,
          105,
          106,
          107,
          108,
          109,
          110,
          111,
          112,
          113,
          114,
          115,
          116,
          117,
          118,
          119,
          120,
          121,
          122,
          123,
          124,
          125,
          126,
          127,
          128,
          129,
          130,
          131,
          132,
          133,
          134,
          135,
          136,
          137,
          138,
          139,
          140,
          141,
          142,
          143,
          144,
          145,
          146,
          147,
          148,
          149,
          150
        ],
        "WindowCenter": [
          937.0,
          935.0,
          934.0,
          932.0,
          931.0,
          931.0,
          932.0,
          932.0,
          932.0,
          932.0,
          932.0,
          932.0,
          931.0,
          933.0,
          932.0,
          931.0,
          932.0,
          932.0,
          932.0,
          933.0,
          933.0,
          933.0,
          932.0,
          932.0,
          933.0,
          933.0,
          932.0,
          932.0,
          934.0,
          932.0,
          931.0,
          933.0,
          934.0,
          932.0,
          931.0,
          933.0,
          933.0,
          933.0,
          933.0,
          934.0,
          934.0,
          933.0,
          932.0,
          932.0,
          932.0,
          932.0,
          933.0,
          932.0,
          931.0,
          933.0,
          934.0,
          932.0,
          932.0,
          933.0,
          933.0,
          932.0,
          931.0,
          932.0,
          934.0,
          936.0,
          934.0,
          932.0,
          932.0,
          934.0,
          935.0,
          934.0,
          933.0,
          933.0,
          933.0,
          933.0,
          933.0,
          934.0,
          934.0,
          935.0,
          934.0,
          933.0,
          934.0,
          935.0,
          934.0,
          933.0,
          934.0,
          933.0,
          933.0,
          933.0,
          934.0,
          935.0,
          934.0,
          934.0,
          935.0,
          933.0,
          933.0,
          935.0,
          936.0,
          933.0,
          932.0,
          932.0,
          933.0,
          932.0,
          932.0,
          933.0,
          934.0,
          933.0,
          933.0,
          934.0,
          935.0,
          934.0,
          933.0,
          934.0,
          935.0,
          935.0,
          935.0,
          935.0,
          934.0,
          933.0,
          933.0,
          933.0,
          933.0,
          933.0,
          933.0,
          933.0,
          933.0,
          933.0,
          933.0,
          933.0,
          934.0,
          934.0,
          933.0,
          933.0,
          933.0,
          935.0,
          934.0,
          933.0,
          933.0,
          934.0,
          934.0,
          933.0,
          934.0,
          934.0,
          934.0,
          937.0,
          935.0,
          935.0,
          935.0,
          934.0,
          934.0,
          937.0,
          935.0,
          933.0,
          934.0,
          937.0
        ],
        "WindowWidth": [
          2147.0,
          2142.0,
          2137.0,
          2133.0,
          2130.0,
          2130.0,
          2132.0,
          2131.0,
          2133.0,
          2133.0,
          2132.0,
          2132.0,
          2131.0,
          2135.0,
          2132.0,
          2130.0,
          2132.0,
          2134.0,
          2132.0,
          2135.0,
          2137.0,
          2134.0,
          2132.0,
          2134.0,
          2136.0,
          2135.0,
          2133.0,
          2133.0,
          2138.0,
          2132.0,
          2130.0,
          2136.0,
          2136.0,
          2133.0,
          2131.0,
          2135.0,
          2136.0,
          2134.0,
          2135.0,
          2139.0,
          2138.0,
          2133.0,
          2130.0,
          2132.0,
          2132.0,
          2132.0,
          2135.0,
          2132.0,
          2130.0,
          2137.0,
          2138.0,
          2132.0,
          2133.0,
          2137.0,
          2134.0,
          2131.0,
          2128.0,
          2131.0,
          2137.0,
          2145.0,
          2137.0,
          2131.0,
          2131.0,
          2138.0,
          2140.0,
          2136.0,
          2134.0,
          2135.0,
          2136.0,
          2136.0,
          2136.0,
          2137.0,
          2138.0,
          2140.0,
          2139.0,
          2135.0,
          2137.0,
          2140.0,
          2137.0,
          2134.0,
          2138.0,
          2135.0,
          2135.0,
          2134.0,
          2138.0,
          2141.0,
          2138.0,
          2138.0,
          2140.0,
          2134.0,
          2135.0,
          2144.0,
          2143.0,
          2134.0,
          2132.0,
          2132.0,
          2134.0,
          2132.0,
          2131.0,
          2134.0,
          2136.0,
          2134.0,
          2134.0,
          2140.0,
          2141.0,
          2137.0,
          2135.0,
          2139.0,
          2141.0,
          2141.0,
          2141.0,
          2141.0,
          2139.0,
          2135.0,
          2136.0,
          2136.0,
          2136.0,
          2134.0,
          2133.0,
          2136.0,
          2136.0,
          2136.0,
          2136.0,
          2134.0,
          2138.0,
          2138.0,
          2136.0,
          2134.0,
          2136.0,
          2141.0,
          2139.0,
          2136.0,
          2136.0,
          2138.0,
          2138.0,
          2136.0,
          2137.0,
          2136.0,
          2137.0,
          2147.0,
          2142.0,
          2142.0,
          2140.0,
          2137.0,
          2139.0,
          2147.0,
          2141.0,
          2134.0,
          2140.0,
          2146.0
        ]
      },
      "slices": {}
    }
  },
  "dummy_trs": 2,
  "dvars_nstd": 72.79639393306125,
  "dvars_std": 1.0351304978231288,
  "dvars_vstd": 1.0022001195918373,
  "efc": 0.5859672485557756,
  "fber": 212.5027618408203,
  "fd_mean": 0.03622722157866198,
  "fd_num": 0,
  "fd_perc": 0.0,
  "fwhm_avg": 3.0410872146880945,
  "fwhm_x": 2.916208415434106,
  "fwhm_y": 2.8428336613795837,
  "fwhm_z": 3.364219567250594,
  "gcor": 0.0025489,
  "gsr_x": 0.05488855764269829,
  "gsr_y": 0.02538551762700081,
  "provenance": {
    "md5sum": "6030f9dee21ff71cba3db3c593253bac",
    "settings": {
      "fd_thres": 0.2,
      "testing": false
    },
    "software": "mriqc",
    "version": "22.0.6",
    "webapi_port": null,
    "webapi_url": "https://mriqc.nimh.nih.gov/api/v1"
  },
  "size_t": 148,
  "size_x": 188,
  "size_y": 188,
  "size_z": 46,
  "snr": 1.8760786103482465,
  "spacing_tr": 2.5999999046325684,
  "spacing_x": 1.0957447290420532,
  "spacing_y": 1.0957447290420532,
  "spacing_z": 1.0999995470046997,
  "summary_bg_k": 34.95954644663865,
  "summary_bg_mad": 40.64133900847264,
  "summary_bg_mean": 130.53433227539062,
  "summary_bg_median": 65.29730224609375,
  "summary_bg_n": 1030404.0,
  "summary_bg_p05": 32.783782958984375,
  "summary_bg_p95": 417.8986511230469,
