{
  "aor": 0.0005726174496644296,
  "aqi": 0.010303871543624162,
  "bids_meta": {
    "AcquisitionMatrixPE": 188,
    "AcquisitionNumber": 1,
    "AcquisitionTime": "19:19:50.030000",
    "BandwidthPerPixelPhaseEncode": 19.46,
    "BaseResolution": 188,
    "CogAtlasID": "TODO",
    "ConversionSoftware": "dcm2niix",
    "ConversionSoftwareVersion": "v1.0.20180606 GCC4.8.5",
    "DelayTime": 1.2,
    "DerivedVendorReportedEchoSpacing": 0.000820013,
    "DeviceSerialNumber": "18930",
    "DwellTime": 1.9e-06,
    "EchoTime": 0.02,
    "EffectiveEchoSpacing": 0.000273338,
    "FlipAngle": 80,
    "ImageComments": "Unaliased_MB2_PE2",
    "ImageOrientationPatientDICOM": [
      0.999913,
      -0.0104875,
      0.00803496,
      0.0100333,
      0.207118,
      -0.978265
    ],
    "ImageType": [
      "ORIGINAL",
      "PRIMARY",
      "M",
      "MB",
      "ND",
      "MOSAIC"
    ],
    "InPlanePhaseEncodingDirectionDICOM": "COL",
    "InstitutionAddress": "Oxfordlaan_55_Maastricht_753AAF_Limburg_NL_6229_EV",
    "InstitutionName": "Scannexus",
    "InstitutionalDepartmentName": "MRI_7T",
    "MRAcquisitionType": "2D",
    "MagneticFieldStrength": 6.98,
    "Manufacturer": "Siemens",
    "ManufacturersModelName": "Investigational_Device_7T",
    "Modality": "MR",
    "MultibandAccelerationFactor": 2,
    "ParallelReductionFactorInPlane": 3,
    "PartialFourier": 0.75,
    "PatientPosition": "HFS",
    "PercentPhaseFOV": 100,
    "PhaseEncodingDirection": "j",
    "PhaseEncodingSteps": 141,
    "PhaseResolution": 1,
    "PixelBandwidth": 1400,
    "ProcedureStepDescription": "FeDem_Faruk",
    "ProtocolName": "cmrr_mbep2d_bold_AP_run10",
    "PulseSequenceDetails": "%CustomerSeq%_cmrr_mbep2d_bold",
    "ReceiveCoilName": "32Ch_Head_7T",
    "ReconMatrixPE": 188,
    "RepetitionTime": 2.6,
    "SAR": 0.0753743,
    "ScanOptions": "PFP_FS",
    "ScanningSequence": "EP",
    "SequenceName": "epfid2d1_188",
    "SequenceVariant": "SK_SS",
    "SeriesDescription": "cmrr_mbep2d_bold_AP_run10",
    "SeriesNumber": 23,
    "ShimSetting": [
      112,
      -93,
      409,
      471,
      -90,
      78,
      246,
      177
    ],
    "SliceThickness": 1.1,
    "SliceTiming": [
      0,
      0.7325,
      0.06,
      0.795,
      0.1225,
      0.855,
      0.1825,
      0.9175,
      0.245,
      0.9775,
      0.305,
      1.04,
      0.3675,
      1.1,
      0.4275,
      1.16,
      0.49,
      1.2225,
      0.55,
      1.2825,
      0.61,
      1.345,
      0.6725,
      0,
      0.7325,
      0.06,
      0.795,
      0.1225,
      0.855,
      0.1825,
      0.9175,
      0.245,
      0.9775,
      0.305,
      1.04,
      0.3675,
      1.1,
      0.4275,
      1.16,
      0.49,
      1.2225,
      0.55,
      1.2825,
      0.61,
      1.345,
      0.6725
    ],
    "SoftwareVersions": "syngo_MR_B17",
    "SpacingBetweenSlices": 1.1,
    "StationName": "MRC18930",
    "TaskName": "auditory",
    "TotalReadoutTime": 0.0511141,
    "TxRefAmp": 230,
    "dataset": "ds001942",
    "dcmmeta_affine": [
      [
        -1.0956491231918335,
        0.010993985459208488,
        -0.009454931132495403,
        102.07075500488281
      ],
      [
        0.011491656303405762,
        0.22694826126098633,
        -1.0760853290557861,
        23.640270233154297
      ],
      [
        0.008804263547062874,
        1.0719282627105713,
        0.2279253751039505,
        -120.88667297363281
      ],
      [
        0.0,
        0.0,
        0.0,
        1.0
      ]
    ],
    "dcmmeta_reorient_transform": [
      [
        0.0,
        -1.0,
        0.0,
        187.0
      ],
      [
        1.0,
        0.0,
        0.0,
        0.0
      ],
      [
        0.0,
        0.0,
        1.0,
        0.0
      ],
      [
        0.0,
        0.0,
        0.0,
        1.0
      ]
    ],
    "dcmmeta_shape": [
      188,
      188,
      46,
      150
    ],
    "dcmmeta_slice_dim": 2,
    "dcmmeta_version": 0.6,
    "global": {
      "const": {
        "AcquisitionMatrix": [
          188,
          0,
          0,
          188
        ],
        "AngioFlag": "N",
        "BitsAllocated": 16,
        "BitsStored": 12,
        "Columns": 1316,
        "EchoNumbers": 1,
        "EchoTime": 20.0,
        "EchoTrainLength": 1,
        "FlipAngle": 80.0,
        "HighBit": 11,
        "ImageOrientationPatient": [
          0.99991272176587,
          -0.0104875304168,
          0.00803495840217,
          0.01003334518996,
          0.207117825706,
          -0.9782645543303
        ],
        "ImagePositionPatient": [
          -728.27332586475,
          -187.59712455365,
          679.165822268
        ],
        "ImageType": [
          "ORIGINAL",
          "PRIMARY",
          "M",
          "MB",
          "ND",
          "MOSAIC"
        ],
        "ImagedNucleus": "1H",
        "ImagingFrequency": 297.205607,
        "InPlanePhaseEncodingDirection": "COL",
        "LargestImagePixelValue": 4095,
        "MRAcquisitionType": "2D",
        "MagneticFieldStrength": 6.98,
        "Manufacturer": "SIEMENS",
        "ManufacturerModelName": "Investigational_Device_7T",
        "Modality": "MR",
        "NumberOfAverages": 1.0,
        "NumberOfPhaseEncodingSteps": 141,
        "PercentPhaseFieldOfView": 100.0,
        "PercentSampling": 100.0,
        "PerformedProcedureStepStartTime": "174020.343000",
        "PhotometricInterpretation": "MONOCHROME2",
        "PixelBandwidth": 1400.0,
        "PixelRepresentation": 0,
        "PixelSpacing": [
          1.0957447290421,
          1.0957447290421
        ],
        "ProtocolName": "cmrr_mbep2d_bold_AP_run10",
        "RepetitionTime": 2600.0,
        "Rows": 1316,
        "SAR": 0.0753742602022,
        "SamplesPerPixel": 1,
        "ScanOptions": [
          "PFP",
          "FS"
        ],
        "ScanningSequence": "EP",
        "SequenceName": "epfid2d1_188",
        "SequenceVariant": [
          "SK",
          "SS"
        ],
        "SeriesDescription": "cmrr_mbep2d_bold_AP_run10",
        "SeriesNumber": 23,
        "SeriesTime": "191959.203000",
        "SliceLocation": -49.05198509884,
        "SliceThickness": 1.1000000238419,
        "SmallestImagePixelValue": 0,
        "SoftwareVersions": "syngo MR B17",
        "SpacingBetweenSlices": 1.0999995139051,
        "SpecificCharacterSet": "ISO_IR 100",
        "StudyID": "1",
        "StudyTime": "174020.281000",
        "TransmitCoilName": "32Ch_Head_7T",
        "VariableFlipAngleFlag": "N",
        "WindowCenterWidthExplanation": "Algo1",
        "dBdt": 0.0
      },
      "slices": {}
    },
    "modality": "bold",
    "run_id": 10,
    "session_id": "SES02",
    "subject_id": "S10",
    "task_id": "auditory",
    "time": {
      "samples": {
        "AcquisitionNumber": [
          1,
          2,
          3,
          4,
          5,
          6,
          7,
          8,
          9,
          10,
          11,
          12,
          13,
          14,
          15,
          16,
          17,
          18,
          19,
          20,
          21,
          22,
          23,
          24,
          25,
          26,
          27,
          28,
          29,
          30,
          31,
          32,
          33,
          34,
          35,
          36,
          37,
          38,
          39,
          40,
          41,
          42,
          43,
          44,
          45,
          46,
          47,
          48,
          49,
          50,
          51,
          52,
          53,
          54,
          55,
          56,
          57,
          58,
          59,
          60,
          61,
          62,
          63,
          64,
          65,
          66,
          67,
          68,
          69,
          70,
          71,
          72,
          73,
          74,
          75,
          76,
          77,
          78,
          79,
          80,
          81,
          82,
          83,
          84,
          85,
          86,
          87,
          88,
          89,
          90,
          91,
          92,
          93,
          94,
          95,
          96,
          97,
          98,
          99,
          100,
          101,
          102,
          103,
          104,
          105,
          106,
          107,
          108,
          109,
          110,
          111,
          112,
          113,
          114,
          115,
          116,
          117,
          118,
          119,
          120,
          121,
          122,
          123,
          124,
          125,
          126,
          127,
          128,
          129,
          130,
          131,
          132,
          133,
          134,
          135,
          136,
          137,
          138,
          139,
          140,
          141,
          142,
          143,
          144,
          145,
          146,
          147,
          148,
          149,
          150
        ],
        "AcquisitionTime": [
          "191950.030000",
          "191952.640000",
          "191955.250000",
          "191957.862500",
          "192000.472500",
          "192003.082500",
          "192005.692500",
          "192008.302500",
          "192010.912500",
          "192013.525000",
          "192016.135000",
          "192018.745000",
          "192021.355000",
          "192023.965000",
          "192026.575000",
          "192029.187500",
          "192031.797500",
          "192034.407500",
          "192037.017500",
          "192039.627500",
          "192042.240000",
          "192044.850000",
          "192047.460000",
          "192050.070000",
          "192052.680000",
          "192055.290000",
          "192057.902500",
          "192100.512500",
          "192103.122500",
          "192105.732500",
          "192108.342500",
          "192110.952500",
          "192113.565000",
          "192116.175000",
          "192118.785000",
          "192121.395000",
          "192124.005000",
          "192126.617500",
          "192129.227500",
          "192131.837500",
          "192134.447500",
          "192137.057500",
          "192139.667500",
          "192142.280000",
          "192144.890000",
          "192147.500000",
          "192150.110000",
          "192152.720000",
          "192155.330000",
          "192157.942500",
          "192200.552500",
          "192203.162500",
          "192205.772500",
          "192208.382500",
          "192210.995000",
          "192213.605000",
          "192216.215000",
          "192218.825000",
          "192221.435000",
          "192224.045000",
          "192226.657500",
          "192229.267500",
          "192231.877500",
          "192234.487500",
          "192237.097500",
          "192239.707500",
          "192242.320000",
          "192244.930000",
          "192247.540000",
          "192250.150000",
          "192252.760000",
          "192255.372500",
          "192257.982500",
          "192300.592500",
          "192303.202500",
          "192305.812500",
          "192308.422500",
          "192311.035000",
          "192313.645000",
          "192316.255000",
          "192318.865000",
          "192321.475000",
          "192324.085000",
          "192326.697500",
          "192329.307500",
          "192331.917500",
          "192334.527500",
          "192337.137500",
          "192339.750000",
          "192342.360000",
          "192344.970000",
          "192347.580000",
          "192350.190000",
          "192352.800000",
          "192355.412500",
          "192358.022500",
          "192400.632500",
          "192403.242500",
          "192405.852500",
          "192408.465000",
          "192411.075000",
          "192413.685000",
          "192416.295000",
          "192418.905000",
          "192421.515000",
          "192424.127500",
          "192426.737500",
          "192429.347500",
          "192431.957500",
          "192434.567500",
          "192437.177500",
          "192439.790000",
          "192442.400000",
          "192445.010000",
          "192447.620000",
          "192450.230000",
          "192452.842500",
          "192455.452500",
          "192458.062500",
          "192500.672500",
          "192503.282500",
          "192505.892500",
          "192508.505000",
          "192511.115000",
          "192513.725000",
          "192516.335000",
          "192518.945000",
          "192521.555000",
          "192524.167500",
          "192526.777500",
          "192529.387500",
          "192531.997500",
          "192534.607500",
          "192537.220000",
          "192539.830000",
          "192542.440000",
          "192545.050000",
          "192547.660000",
          "192550.270000",
          "192552.882500",
          "192555.492500",
          "192558.102500",
          "192600.712500",
          "192603.322500",
          "192605.932500",
          "192608.545000",
          "192611.155000",
          "192613.765000",
          "192616.375000",
          "192618.985000"
        ],
        "ContentTime": [
          "191959.218000",
          "191959.703000",
          "192000.203000",
          "192002.703000",
          "192005.203000",
          "192007.703000",
          "192010.203000",
          "192012.703000",
          "192015.703000",
          "192018.203000",
          "192020.703000",
          "192023.203000",
          "192025.703000",
          "192028.703000",
          "192031.203000",
          "192033.703000",
          "192036.203000",
          "192038.703000",
          "192041.703000",
          "192044.203000",
          "192046.703000",
          "192049.203000",
          "192051.703000",
          "192054.703000",
          "192057.203000",
          "192059.703000",
          "192102.203000",
          "192104.703000",
          "192107.703000",
          "192110.203000",
          "192112.703000",
          "192115.203000",
          "192117.703000",
          "192120.703000",
          "192123.203000",
          "192125.703000",
          "192128.203000",
          "192130.703000",
          "192133.703000",
          "192136.203000",
          "192138.703000",
          "192141.203000",
          "192143.703000",
          "192146.703000",
          "192149.203000",
          "192151.703000",
          "192154.203000",
          "192156.703000",
          "192159.703000",
          "192202.203000",
          "192204.703000",
          "192207.203000",
          "192209.703000",
          "192212.703000",
          "192215.203000",
          "192217.703000",
          "192220.203000",
          "192222.703000",
          "192225.703000",
          "192228.203000",
          "192230.703000",
          "192233.203000",
          "192235.703000",
          "192238.703000",
          "192241.203000",
          "192243.703000",
          "192246.203000",
          "192248.703000",
          "192251.703000",
          "192254.203000",
          "192256.703000",
          "192259.203000",
          "192301.703000",
          "192304.703000",
          "192307.203000",
          "192309.703000",
          "192312.203000",
          "192314.703000",
          "192317.703000",
          "192320.203000",
          "192322.703000",
          "192325.203000",
          "192327.703000",
          "192330.703000",
          "192333.203000",
          "192335.703000",
          "192338.203000",
          "192340.703000",
          "192343.703000",
          "192346.203000",
          "192348.703000",
          "192351.203000",
          "192353.703000",
          "192356.703000",
          "192359.203000",
          "192401.703000",
          "192404.203000",
          "192406.703000",
          "192409.703000",
          "192412.203000",
          "192414.703000",
          "192417.203000",
          "192419.703000",
          "192422.703000",
          "192425.203000",
          "192427.703000",
          "192430.203000",
          "192432.703000",
          "192435.703000",
          "192438.203000",
          "192440.703000",
          "192443.203000",
          "192445.703000",
          "192448.703000",
          "192451.203000",
          "192453.703000",
          "192456.203000",
          "192458.703000",
          "192501.703000",
          "192504.203000",
          "192506.703000",
          "192509.203000",
          "192511.703000",
          "192514.703000",
          "192517.203000",
          "192519.703000",
          "192522.203000",
          "192524.703000",
          "192527.703000",
          "192530.203000",
          "192532.703000",
          "192535.203000",
          "192537.703000",
          "192540.703000",
          "192543.203000",
          "192545.703000",
          "192548.203000",
          "192550.703000",
          "192553.703000",
          "192556.203000",
          "192558.703000",
          "192601.203000",
          "192603.703000",
          "192606.703000",
          "192609.203000",
          "192611.703000",
          "192614.203000",
          "192616.703000",
          "192619.703000",
          "192626.843000"
        ],
        "InstanceCreationTime": [
          "191959.218000",
          "191959.703000",
          "192000.203000",
          "192002.703000",
          "192005.203000",
          "192007.703000",
          "192010.203000",
          "192012.703000",
          "192015.703000",
          "192018.203000",
          "192020.703000",
          "192023.203000",
          "192025.703000",
          "192028.703000",
          "192031.203000",
          "192033.703000",
          "192036.203000",
          "192038.703000",
          "192041.703000",
          "192044.203000",
          "192046.703000",
          "192049.203000",
          "192051.703000",
          "192054.703000",
          "192057.203000",
          "192059.703000",
          "192102.203000",
          "192104.703000",
          "192107.703000",
          "192110.203000",
          "192112.703000",
          "192115.203000",
          "192117.703000",
          "192120.703000",
          "192123.203000",
          "192125.703000",
          "192128.203000",
          "192130.703000",
          "192133.703000",
          "192136.203000",
          "192138.703000",
          "192141.203000",
          "192143.703000",
          "192146.703000",
          "192149.203000",
          "192151.703000",
          "192154.203000",
          "192156.703000",
          "192159.703000",
          "192202.203000",
          "192204.703000",
          "192207.203000",
          "192209.703000",
          "192212.703000",
          "192215.203000",
          "192217.703000",
          "192220.203000",
          "192222.703000",
          "192225.703000",
          "192228.203000",
          "192230.703000",
          "192233.203000",
          "192235.703000",
          "192238.703000",
          "192241.203000",
          "192243.703000",
          "192246.203000",
          "192248.703000",
          "192251.703000",
          "192254.203000",
          "192256.703000",
          "192259.203000",
          "192301.703000",
          "192304.703000",
          "192307.203000",
          "192309.703000",
          "192312.203000",
          "192314.703000",
          "192317.703000",
          "192320.203000",
          "192322.703000",
          "192325.203000",
          "192327.703000",
          "192330.703000",
          "192333.203000",
          "192335.703000",
          "192338.203000",
          "192340.703000",
          "192343.703000",
          "192346.203000",
          "192348.703000",
          "192351.203000",
          "192353.703000",
          "192356.703000",
          "192359.203000",
          "192401.703000",
          "192404.203000",
          "192406.703000",
          "192409.703000",
          "192412.203000",
          "192414.703000",
          "192417.203000",
          "192419.703000",
          "192422.703000",
          "192425.203000",
          "192427.703000",
          "192430.203000",
          "192432.703000",
          "192435.703000",
          "192438.203000",
          "192440.703000",
          "192443.203000",
          "192445.703000",
          "192448.703000",
          "192451.203000",
          "192453.703000",
          "192456.203000",
          "192458.703000",
          "192501.703000",
          "192504.203000",
          "192506.703000",
          "192509.203000",
          "192511.703000",
          "192514.703000",
          "192517.203000",
          "192519.703000",
          "192522.203000",
          "192524.703000",
          "192527.703000",
          "192530.203000",
          "192532.703000",
          "192535.203000",
          "192537.703000",
          "192540.703000",
          "192543.203000",
          "192545.703000",
          "192548.203000",
          "192550.703000",
          "192553.703000",
          "192556.203000",
          "192558.703000",
          "192601.203000",
          "192603.703000",
          "192606.703000",
          "192609.203000",
          "192611.703000",
          "192614.203000",
          "192616.703000",
          "192619.703000",
          "192626.843000"
        ],
        "InstanceNumber": [
          1,
          2,
          3,
          4,
          5,
          6,
          7,
          8,
          9,
          10,
          11,
          12,
          13,
          14,
          15,
          16,
          17,
          18,
          19,
          20,
          21,
          22,
          23,
          24,
          25,
          26,
          27,
          28,
          29,
          30,
          31,
          32,
          33,
          34,
          35,
          36,
          37,
          38,
          39,
          40,
          41,
          42,
          43,
          44,
          45,
          46,
          47,
          48,
          49,
          50,
          51,
          52,
          53,
          54,
          55,
          56,
          57,
          58,
          59,
          60,
          61,
          62,
          63,
          64,
          65,
          66,
          67,
          68,
          69,
          70,
          71,
          72,
          73,
          74,
          75,
          76,
          77,
          78,
          79,
          80,
          81,
          82,
          83,
          84,
          85,
          86,
          87,
          88,
          89,
          90,
          91,
          92,
          93,
          94,
          95,
          96,
          97,
          98,
          99,
          100,
          101,
          102,
          103,
          104,
          105,
          106,
          107,
          108,
          109,
          110,
          111,
          112,
          113,
          114,
          115,
          116,
          117,
          118,
          119,
          120,
          121,
          122,
          123,
          124,
          125,
          126,
          127,
          128,
          129,
          130,
          131,
          132,
          133,
          134,
          135,
          136,
          137,
          138,
          139,
          140,
          141,
          142,
          143,
          144,
          145,
          146,
          147,
          148,
          149,
          150
        ],
        "WindowCenter": [
          937.0,
          935.0,
          934.0,
          934.0,
          934.0,
          935.0,
          934.0,
          935.0,
          935.0,
          933.0,
          933.0,
          934.0,
          934.0,
          933.0,
          933.0,
          933.0,
          935.0,
          934.0,
          933.0,
          934.0,
          935.0,
          934.0,
          933.0,
          933.0,
          934.0,
          934.0,
          935.0,
          935.0,
          934.0,
          933.0,
          933.0,
          934.0,
          933.0,
          934.0,
          934.0,
          933.0,
          933.0,
          933.0,
          934.0,
          935.0,
          935.0,
          935.0,
          934.0,
          934.0,
          933.0,
          934.0,
          934.0,
          934.0,
          934.0,
          934.0,
          933.0,
          935.0,
          936.0,
          934.0,
          933.0,
          934.0,
          936.0,
          936.0,
          934.0,
          933.0,
          934.0,
          934.0,
          935.0,
          934.0,
          936.0,
          936.0,
          934.0,
          933.0,
          935.0,
          935.0,
          933.0,
          933.0,
          935.0,
          936.0,
          935.0,
          934.0,
          935.0,
          936.0,
          935.0,
          936.0,
          935.0,
          935.0,
          934.0,
          936.0,
          937.0,
          935.0,
          936.0,
          936.0,
          935.0,
          935.0,
          936.0,
          936.0,
          934.0,
          934.0,
          934.0,
          935.0,
          934.0,
          935.0,
          934.0,
          936.0,
          938.0,
          934.0,
          933.0,
          934.0,
          934.0,
          934.0,
          935.0,
          936.0,
          936.0,
          936.0,
          937.0,
          939.0,
          936.0,
          935.0,
          934.0,
          935.0,
          936.0,
          936.0,
          937.0,
          936.0,
          935.0,
          935.0,
          936.0,
          937.0,
          937.0,
          935.0,
          935.0,
          935.0,
          935.0,
          935.0,
          935.0,
          935.0,
          937.0,
          937.0,
          935.0,
          936.0,
          937.0,
          935.0,
          937.0,
          937.0,
          936.0,
          936.0,
          935.0,
          934.0,
          934.0,
          935.0,
          935.0,
          935.0,
          937.0,
          936.0
        ],
        "WindowWidth": [
          2144.0,
          2138.0,
          2137.0,
          2136.0,
          2136.0,
          2139.0,
          2137.0,
          2138.0,
          2137.0,
          2133.0,
          2132.0,
          2135.0,
          2134.0,
          2134.0,
          2132.0,
          2134.0,
          2138.0,
          2135.0,
          2131.0,
          2136.0,
          2138.0,
          2135.0,
          2131.0,
          2132.0,
          2135.0,
          2134.0,
          2138.0,
          2138.0,
          2135.0,
          2132.0,
          2133.0,
          2137.0,
          2133.0,
          2137.0,
          2136.0,
          2132.0,
          2131.0,
          2134.0,
          2137.0,
          2139.0,
          2137.0,
          2138.0,
          2135.0,
          2135.0,
          2133.0,
          2137.0,
          2136.0,
          2136.0,
          2136.0,
          2135.0,
          2133.0,
          2139.0,
          2141.0,
          2137.0,
          2133.0,
          2136.0,
          2142.0,
          2144.0,
          2135.0,
          2133.0,
          2135.0,
          2137.0,
          2139.0,
          2136.0,
          2141.0,
          2141.0,
          2136.0,
          2134.0,
          2140.0,
          2139.0,
          2132.0,
          2133.0,
          2139.0,
          2143.0,
          2137.0,
          2134.0,
          2139.0,
          2140.0,
          2137.0,
          2141.0,
          2139.0,
          2137.0,
          2136.0,
          2141.0,
          2143.0,
          2140.0,
          2141.0,
          2143.0,
          2140.0,
          2138.0,
          2141.0,
          2140.0,
          2135.0,
          2135.0,
          2136.0,
          2139.0,
          2137.0,
          2138.0,
          2135.0,
          2143.0,
          2147.0,
          2135.0,
          2132.0,
          2134.0,
          2135.0,
          2136.0,
          2139.0,
          2141.0,
          2142.0,
          2141.0,
          2145.0,
          2151.0,
          2142.0,
          2139.0,
          2135.0,
          2137.0,
          2141.0,
          2143.0,
          2144.0,
          2143.0,
          2139.0,
          2140.0,
          2142.0,
          2146.0,
          2145.0,
          2139.0,
          2137.0,
          2140.0,
          2139.0,
          2138.0,
          2137.0,
          2139.0,
          2144.0,
          2142.0,
          2139.0,
          2142.0,
          2143.0,
          2139.0,
          2145.0,
          2144.0,
          2140.0,
          2142.0,
          2139.0,
          2135.0,
          2135.0,
          2138.0,
          2137.0,
          2139.0,
          2145.0,
          2143.0
        ]
      },
      "slices": {}
    }
  },
  "dummy_trs": 1,
  "dvars_nstd": 73.12844539324325,
  "dvars_std": 1.0473185244594596,
  "dvars_vstd": 1.0115056556756747,
  "efc": 0.5868477075781738,
  "fber": 214.3654022216797,
  "fd_mean": 0.039107247337091804,
  "fd_num": 0,
  "fd_perc": 0.0,
  "fwhm_avg": 3.036114622470754,
  "fwhm_x": 2.904134435382597,
  "fwhm_y": 2.843262593399554,
  "fwhm_z": 3.3609468386301113,
  "gcor": 0.00234253,
  "gsr_x": 0.055396635085344315,
  "gsr_y": 0.026200246065855026,
  "provenance": {
    "md5sum": "676b82db9107779f7172e0aec9c5f92a",
    "settings": {
      "fd_thres": 0.2,
      "testing": false
    },
    "software": "mriqc",
    "version": "22.0.6",
    "webapi_port": null,
    "webapi_url": "https://mriqc.nimh.nih.gov/api/v1"
  },
  "size_t": 149,
  "size_x": 188,
  "size_y": 188,
  "size_z": 46,
  "snr": 1.8856017678295143,
  "spacing_tr": 2.5999999046325684,
  "spacing_x": 1.0957447290420532,
  "spacing_y": 1.0957447290420532,
  "spacing_z": 1.0999995470046997,
  "summary_bg_k": 34.06113851953141,
  "summary_bg_mad": 40.686980335008215,
  "summary_bg_mean": 132.20700073242188,
  "summary_bg_median": 65.20805358886719,
  "summary_bg_n": 1030911.0,
  "summary_bg_p05": 32.899330139160156,
  "summary_bg_p95": 425.79864501953125,
