{
  "aor": 0.000715945945945946,
  "aqi": 0.011905787162162161,
  "bids_meta": {
    "AcquisitionMatrixPE": 188,
    "AcquisitionNumber": 1,
    "AcquisitionTime": "09:54:13.300000",
    "BandwidthPerPixelPhaseEncode": 19.46,
    "BaseResolution": 188,
    "CogAtlasID": "TODO",
    "ConversionSoftware": "dcm2niix",
    "ConversionSoftwareVersion": "v1.0.20180606 GCC4.8.5",
    "DelayTime": 1.2,
    "DerivedVendorReportedEchoSpacing": 0.000820013,
    "DeviceSerialNumber": "18930",
    "DwellTime": 1.9e-06,
    "EchoTime": 0.02,
    "EffectiveEchoSpacing": 0.000273338,
    "FlipAngle": 80,
    "ImageComments": "Unaliased_MB2_PE2",
    "ImageOrientationPatientDICOM": [
      0.999755,
      0.015956,
      0.0153145,
      0.0114333,
      0.219867,
      -0.975463
    ],
    "ImageType": [
      "ORIGINAL",
      "PRIMARY",
      "M",
      "MB",
      "ND",
      "MOSAIC"
    ],
    "InPlanePhaseEncodingDirectionDICOM": "COL",
    "InstitutionAddress": "Oxfordlaan_55_Maastricht_12C0A2_Limburg_NL_6229_EV",
    "InstitutionName": "Scannexus",
    "InstitutionalDepartmentName": "MRI_7T",
    "MRAcquisitionType": "2D",
    "MagneticFieldStrength": 6.98,
    "Manufacturer": "Siemens",
    "ManufacturersModelName": "Investigational_Device_7T",
    "Modality": "MR",
    "MultibandAccelerationFactor": 2,
    "ParallelReductionFactorInPlane": 3,
    "PartialFourier": 0.75,
    "PatientPosition": "HFS",
    "PercentPhaseFOV": 100,
    "PhaseEncodingDirection": "j",
    "PhaseEncodingSteps": 141,
    "PhaseResolution": 1,
    "PixelBandwidth": 1400,
    "ProcedureStepDescription": "FeDem_Faruk",
    "ProtocolName": "cmrr_mbep2d_bold_AP_run8",
    "PulseSequenceDetails": "%CustomerSeq%_cmrr_mbep2d_bold",
    "ReceiveCoilName": "32Ch_Head_7T",
    "ReconMatrixPE": 188,
    "RepetitionTime": 2.6,
    "SAR": 0.0530079,
    "ScanOptions": "PFP_FS",
    "ScanningSequence": "EP",
    "SequenceName": "epfid2d1_188",
    "SequenceVariant": "SK_SS",
    "SeriesDescription": "cmrr_mbep2d_bold_AP_run8",
    "SeriesNumber": 19,
    "ShimSetting": [
      110,
      -39,
      352,
      551,
      168,
      265,
      -75,
      84
    ],
    "SliceThickness": 1.1,
    "SliceTiming": [
      0,
      0.7325,
      0.0625,
      0.795,
      0.1225,
      0.855,
      0.1825,
      0.9175,
      0.245,
      0.9775,
      0.305,
      1.04,
      0.3675,
      1.1,
      0.4275,
      1.16,
      0.49,
      1.2225,
      0.55,
      1.2825,
      0.6125,
      1.345,
      0.6725,
      0,
      0.7325,
      0.0625,
      0.795,
      0.1225,
      0.855,
      0.1825,
      0.9175,
      0.245,
      0.9775,
      0.305,
      1.04,
      0.3675,
      1.1,
      0.4275,
      1.16,
      0.49,
      1.2225,
      0.55,
      1.2825,
      0.6125,
      1.345,
      0.6725
    ],
    "SoftwareVersions": "syngo_MR_B17",
    "SpacingBetweenSlices": 1.1,
    "StationName": "MRC18930",
    "TaskName": "auditory",
    "TotalReadoutTime": 0.0511141,
    "TxRefAmp": 185,
    "dataset": "ds001942",
    "dcmmeta_affine": [
      [
        -1.095476746559143,
        0.012527965009212494,
        0.020824825391173363,
        103.05306243896484
      ],
      [
        -0.017483726143836975,
        0.24091863632202148,
        -1.072939157485962,
        21.79283905029297
      ],
      [
        0.016780756413936615,
        1.0688581466674805,
        0.24159440398216248,
        -118.52979278564453
      ],
      [
        0.0,
        0.0,
        0.0,
        1.0
      ]
    ],
    "dcmmeta_reorient_transform": [
      [
        0.0,
        -1.0,
        0.0,
        187.0
      ],
      [
        1.0,
        0.0,
        0.0,
        0.0
      ],
      [
        0.0,
        0.0,
        1.0,
        0.0
      ],
      [
        0.0,
        0.0,
        0.0,
        1.0
      ]
    ],
    "dcmmeta_shape": [
      188,
      188,
      46,
      150
    ],
    "dcmmeta_slice_dim": 2,
    "dcmmeta_version": 0.6,
    "global": {
      "const": {
        "AcquisitionMatrix": [
          188,
          0,
          0,
          188
        ],
        "AngioFlag": "N",
        "BitsAllocated": 16,
        "BitsStored": 12,
        "Columns": 1316,
        "EchoNumbers": 1,
        "EchoTime": 20.0,
        "EchoTrainLength": 1,
        "FlipAngle": 80.0,
        "HighBit": 11,
        "ImageOrientationPatient": [
          0.99975540619208,
          0.01595602073933,
          0.01531447654586,
          0.01143328775089,
          0.21986748273264,
          -0.9754627465813
        ],
        "ImagePositionPatient": [
          -730.31042959187,
          -212.58355542209,
          674.71833962045
        ],
        "ImageType": [
          "ORIGINAL",
          "PRIMARY",
          "M",
          "MB",
          "ND",
          "MOSAIC"
        ],
        "ImagedNucleus": "1H",
        "ImagingFrequency": 297.205747,
        "InPlanePhaseEncodingDirection": "COL",
        "LargestImagePixelValue": 4095,
        "MRAcquisitionType": "2D",
        "MagneticFieldStrength": 6.98,
        "Manufacturer": "SIEMENS",
        "ManufacturerModelName": "Investigational_Device_7T",
        "Modality": "MR",
        "NumberOfAverages": 1.0,
        "NumberOfPhaseEncodingSteps": 141,
        "PercentPhaseFieldOfView": 100.0,
        "PercentSampling": 100.0,
        "PerformedProcedureStepStartTime": "080807.562000",
        "PhotometricInterpretation": "MONOCHROME2",
        "PixelBandwidth": 1400.0,
        "PixelRepresentation": 0,
        "PixelSpacing": [
          1.0957447290421,
          1.0957447290421
        ],
        "ProtocolName": "cmrr_mbep2d_bold_AP_run8",
        "RepetitionTime": 2600.0,
        "Rows": 1316,
        "SAR": 0.05300792738251,
        "SamplesPerPixel": 1,
        "ScanOptions": [
          "PFP",
          "FS"
        ],
        "ScanningSequence": "EP",
        "SequenceName": "epfid2d1_188",
        "SequenceVariant": [
          "SK",
          "SS"
        ],
        "SeriesDescription": "cmrr_mbep2d_bold_AP_run8",
        "SeriesNumber": 19,
        "SeriesTime": "095423.250000",
        "SliceLocation": -45.338603166727,
        "SliceThickness": 1.1000000238419,
        "SmallestImagePixelValue": 0,
        "SoftwareVersions": "syngo MR B17",
        "SpacingBetweenSlices": 1.0999999744075,
        "SpecificCharacterSet": "ISO_IR 100",
        "StudyID": "1",
        "StudyTime": "080807.515000",
        "TransmitCoilName": "32Ch_Head_7T",
        "VariableFlipAngleFlag": "N",
        "WindowCenterWidthExplanation": "Algo1",
        "dBdt": 0.0
      },
      "slices": {}
    },
    "modality": "bold",
    "run_id": 8,
    "session_id": "SES02",
    "subject_id": "S02",
    "task_id": "auditory",
    "time": {
      "samples": {
        "AcquisitionNumber": [
          1,
          2,
          3,
          4,
          5,
          6,
          7,
          8,
          9,
          10,
          11,
          12,
          13,
          14,
          15,
          16,
          17,
          18,
          19,
          20,
          21,
          22,
          23,
          24,
          25,
          26,
          27,
          28,
          29,
          30,
          31,
          32,
          33,
          34,
          35,
          36,
          37,
          38,
          39,
          40,
          41,
          42,
          43,
          44,
          45,
          46,
          47,
          48,
          49,
          50,
          51,
          52,
          53,
          54,
          55,
          56,
          57,
          58,
          59,
          60,
          61,
          62,
          63,
          64,
          65,
          66,
          67,
          68,
          69,
          70,
          71,
          72,
          73,
          74,
          75,
          76,
          77,
          78,
          79,
          80,
          81,
          82,
          83,
          84,
          85,
          86,
          87,
          88,
          89,
          90,
          91,
          92,
          93,
          94,
          95,
          96,
          97,
          98,
          99,
          100,
          101,
          102,
          103,
          104,
          105,
          106,
          107,
          108,
          109,
          110,
          111,
          112,
          113,
          114,
          115,
          116,
          117,
          118,
          119,
          120,
          121,
          122,
          123,
          124,
          125,
          126,
          127,
          128,
          129,
          130,
          131,
          132,
          133,
          134,
          135,
          136,
          137,
          138,
          139,
          140,
          141,
          142,
          143,
          144,
          145,
          146,
          147,
          148,
          149,
          150
        ],
        "AcquisitionTime": [
          "095413.300000",
          "095415.910000",
          "095418.520000",
          "095421.132500",
          "095423.742500",
          "095426.352500",
          "095428.962500",
          "095431.572500",
          "095434.185000",
          "095436.795000",
          "095439.405000",
          "095442.015000",
          "095444.625000",
          "095447.235000",
          "095449.847500",
          "095452.457500",
          "095455.067500",
          "095457.677500",
          "095500.287500",
          "095502.897500",
          "095505.510000",
          "095508.120000",
          "095510.730000",
          "095513.340000",
          "095515.950000",
          "095518.562500",
          "095521.172500",
          "095523.782500",
          "095526.392500",
          "095529.002500",
          "095531.612500",
          "095534.225000",
          "095536.835000",
          "095539.445000",
          "095542.055000",
          "095544.665000",
          "095547.275000",
          "095549.887500",
          "095552.497500",
          "095555.107500",
          "095557.717500",
          "095600.327500",
          "095602.940000",
          "095605.550000",
          "095608.160000",
          "095610.770000",
          "095613.380000",
          "095615.990000",
          "095618.602500",
          "095621.212500",
          "095623.822500",
          "095626.432500",
          "095629.042500",
          "095631.652500",
          "095634.265000",
          "095636.875000",
          "095639.485000",
          "095642.095000",
          "095644.705000",
          "095647.317500",
          "095649.927500",
          "095652.537500",
          "095655.147500",
          "095657.757500",
          "095700.367500",
          "095702.980000",
          "095705.590000",
          "095708.200000",
          "095710.810000",
          "095713.420000",
          "095716.030000",
          "095718.642500",
          "095721.252500",
          "095723.862500",
          "095726.472500",
          "095729.082500",
          "095731.695000",
          "095734.305000",
          "095736.915000",
          "095739.525000",
          "095742.135000",
          "095744.745000",
          "095747.357500",
          "095749.967500",
          "095752.577500",
          "095755.187500",
          "095757.797500",
          "095800.407500",
          "095803.020000",
          "095805.630000",
          "095808.240000",
          "095810.850000",
          "095813.460000",
          "095816.072500",
          "095818.682500",
          "095821.292500",
          "095823.902500",
          "095826.512500",
          "095829.122500",
          "095831.735000",
          "095834.345000",
          "095836.955000",
          "095839.565000",
          "095842.175000",
          "095844.785000",
          "095847.397500",
          "095850.007500",
          "095852.617500",
          "095855.227500",
          "095857.837500",
          "095900.450000",
          "095903.060000",
          "095905.670000",
          "095908.280000",
          "095910.890000",
          "095913.500000",
          "095916.112500",
          "095918.722500",
          "095921.332500",
          "095923.942500",
          "095926.552500",
          "095929.162500",
          "095931.775000",
          "095934.385000",
          "095936.995000",
          "095939.605000",
          "095942.215000",
          "095944.827500",
          "095947.437500",
          "095950.047500",
          "095952.657500",
          "095955.267500",
          "095957.877500",
          "100000.490000",
          "100003.100000",
          "100005.710000",
          "100008.320000",
          "100010.930000",
          "100013.540000",
          "100016.152500",
          "100018.762500",
          "100021.372500",
          "100023.982500",
          "100026.592500",
          "100029.205000",
          "100031.815000",
          "100034.425000",
          "100037.035000",
          "100039.645000",
          "100042.255000"
        ],
        "ContentTime": [
          "095423.250000",
          "095423.750000",
          "095423.750000",
          "095426.250000",
          "095428.750000",
          "095431.250000",
          "095434.250000",
          "095436.750000",
          "095439.250000",
          "095441.750000",
          "095444.250000",
          "095447.250000",
          "095449.750000",
          "095452.250000",
          "095454.750000",
          "095457.250000",
          "095500.250000",
          "095502.734000",
          "095505.250000",
          "095507.750000",
          "095510.250000",
          "095513.250000",
          "095515.750000",
          "095518.250000",
          "095520.750000",
          "095523.250000",
          "095526.250000",
          "095528.750000",
          "095531.250000",
          "095533.750000",
          "095536.250000",
          "095539.250000",
          "095541.750000",
          "095544.250000",
          "095546.750000",
          "095549.250000",
          "095552.250000",
          "095554.750000",
          "095557.234000",
          "095559.750000",
          "095602.250000",
          "095605.250000",
          "095607.750000",
          "095610.250000",
          "095612.750000",
          "095615.250000",
          "095618.250000",
          "095620.750000",
          "095623.250000",
          "095625.750000",
          "095628.250000",
          "095631.250000",
          "095633.750000",
          "095636.250000",
          "095638.750000",
          "095641.250000",
          "095644.250000",
          "095646.734000",
          "095649.250000",
          "095651.750000",
          "095654.250000",
          "095657.250000",
          "095659.750000",
          "095702.250000",
          "095704.750000",
          "095707.250000",
          "095710.250000",
          "095712.750000",
          "095715.250000",
          "095717.750000",
          "095720.250000",
          "095723.250000",
          "095725.750000",
          "095728.250000",
          "095730.750000",
          "095733.250000",
          "095736.250000",
          "095738.750000",
          "095741.250000",
          "095743.750000",
          "095746.250000",
          "095749.234000",
          "095751.734000",
          "095754.250000",
          "095756.750000",
          "095759.250000",
          "095802.250000",
          "095804.750000",
          "095807.250000",
          "095809.750000",
          "095812.250000",
          "095815.250000",
          "095817.750000",
          "095820.250000",
          "095822.750000",
          "095825.250000",
          "095828.250000",
          "095830.750000",
          "095833.250000",
          "095835.750000",
          "095838.250000",
          "095841.250000",
          "095843.750000",
          "095846.234000",
          "095848.734000",
          "095851.250000",
          "095854.250000",
          "095856.750000",
          "095859.250000",
          "095901.750000",
          "095904.250000",
          "095907.250000",
          "095909.750000",
          "095912.250000",
          "095914.750000",
          "095917.250000",
          "095920.250000",
          "095922.750000",
          "095925.250000",
          "095927.750000",
          "095930.250000",
          "095933.250000",
          "095935.750000",
          "095938.250000",
          "095940.750000",
          "095943.234000",
          "095946.250000",
          "095948.750000",
          "095951.250000",
          "095953.750000",
          "095956.250000",
          "095959.250000",
          "100001.750000",
          "100004.250000",
          "100006.750000",
          "100009.250000",
          "100012.250000",
          "100014.750000",
          "100017.250000",
          "100019.750000",
          "100022.250000",
          "100025.250000",
          "100027.750000",
          "100030.250000",
          "100032.750000",
          "100035.250000",
          "100038.250000",
          "100040.734000",
          "100043.250000",
          "100050.593000"
        ],
        "InstanceCreationTime": [
          "095423.250000",
          "095423.750000",
          "095423.750000",
          "095426.250000",
          "095428.750000",
          "095431.250000",
          "095434.250000",
          "095436.750000",
          "095439.250000",
          "095441.750000",
          "095444.250000",
          "095447.250000",
          "095449.750000",
          "095452.250000",
          "095454.750000",
          "095457.250000",
          "095500.250000",
          "095502.734000",
          "095505.250000",
          "095507.750000",
          "095510.250000",
          "095513.250000",
          "095515.750000",
          "095518.250000",
          "095520.750000",
          "095523.250000",
          "095526.250000",
          "095528.750000",
          "095531.250000",
          "095533.750000",
          "095536.250000",
          "095539.250000",
          "095541.750000",
          "095544.250000",
          "095546.750000",
          "095549.250000",
          "095552.250000",
          "095554.750000",
          "095557.234000",
          "095559.750000",
          "095602.250000",
          "095605.250000",
          "095607.750000",
          "095610.250000",
          "095612.750000",
          "095615.250000",
          "095618.250000",
          "095620.750000",
          "095623.250000",
          "095625.750000",
          "095628.250000",
          "095631.250000",
          "095633.750000",
          "095636.250000",
          "095638.750000",
          "095641.250000",
          "095644.250000",
          "095646.734000",
          "095649.250000",
          "095651.750000",
          "095654.250000",
          "095657.250000",
          "095659.750000",
          "095702.250000",
          "095704.750000",
          "095707.250000",
          "095710.250000",
          "095712.750000",
          "095715.250000",
          "095717.750000",
          "095720.250000",
          "095723.250000",
          "095725.750000",
          "095728.250000",
          "095730.750000",
          "095733.250000",
          "095736.250000",
          "095738.750000",
          "095741.250000",
          "095743.750000",
          "095746.250000",
          "095749.234000",
          "095751.734000",
          "095754.250000",
          "095756.750000",
          "095759.250000",
          "095802.250000",
          "095804.750000",
          "095807.250000",
          "095809.750000",
          "095812.250000",
          "095815.250000",
          "095817.750000",
          "095820.250000",
          "095822.750000",
          "095825.250000",
          "095828.250000",
          "095830.750000",
          "095833.250000",
          "095835.750000",
          "095838.250000",
          "095841.250000",
          "095843.750000",
          "095846.234000",
          "095848.734000",
          "095851.250000",
          "095854.250000",
          "095856.750000",
          "095859.250000",
          "095901.750000",
          "095904.250000",
          "095907.250000",
          "095909.750000",
          "095912.250000",
          "095914.750000",
          "095917.250000",
          "095920.250000",
          "095922.750000",
          "095925.250000",
          "095927.750000",
          "095930.250000",
          "095933.250000",
          "095935.750000",
          "095938.250000",
          "095940.750000",
          "095943.234000",
          "095946.250000",
          "095948.750000",
          "095951.250000",
          "095953.750000",
          "095956.250000",
          "095959.250000",
          "100001.750000",
          "100004.250000",
          "100006.750000",
          "100009.250000",
          "100012.250000",
          "100014.750000",
          "100017.250000",
          "100019.750000",
          "100022.250000",
          "100025.250000",
          "100027.750000",
          "100030.250000",
          "100032.750000",
          "100035.250000",
          "100038.250000",
          "100040.734000",
          "100043.250000",
          "100050.593000"
        ],
        "InstanceNumber": [
          1,
          2,
          3,
          4,
          5,
          6,
          7,
          8,
          9,
          10,
          11,
          12,
          13,
          14,
          15,
          16,
          17,
          18,
          19,
          20,
          21,
          22,
          23,
          24,
          25,
          26,
          27,
          28,
          29,
          30,
          31,
          32,
          33,
          34,
          35,
          36,
          37,
          38,
          39,
          40,
          41,
          42,
          43,
          44,
          45,
          46,
          47,
          48,
          49,
          50,
          51,
          52,
          53,
          54,
          55,
          56,
          57,
          58,
          59,
          60,
          61,
          62,
          63,
          64,
          65,
          66,
          67,
          68,
          69,
          70,
          71,
          72,
          73,
          74,
          75,
          76,
          77,
          78,
          79,
          80,
          81,
          82,
          83,
          84,
          85,
          86,
          87,
          88,
          89,
          90,
          91,
          92,
          93,
          94,
          95,
          96,
          97,
          98,
          99,
          100,
          101,
          102,
          103,
          104,
          105,
          106,
          107,
          108,
          109,
          110,
          111,
          112,
          113,
          114,
          115,
          116,
          117,
          118,
          119,
          120,
          121,
          122,
          123,
          124,
          125,
          126,
          127,
          128,
          129,
          130,
          131,
          132,
          133,
          134,
          135,
          136,
          137,
          138,
          139,
          140,
          141,
          142,
          143,
          144,
          145,
          146,
          147,
          148,
          149,
          150
        ],
        "WindowCenter": [
          885.0,
          883.0,
          880.0,
          882.0,
          879.0,
          878.0,
          878.0,
          879.0,
          878.0,
          878.0,
          879.0,
          879.0,
          879.0,
          879.0,
          879.0,
          879.0,
          879.0,
          879.0,
          879.0,
          878.0,
          880.0,
          880.0,
          879.0,
          879.0,
          880.0,
          879.0,
          879.0,
          880.0,
          881.0,
          880.0,
          879.0,
          879.0,
          878.0,
          879.0,
          879.0,
          878.0,
          877.0,
          876.0,
          877.0,
          878.0,
          878.0,
          878.0,
          878.0,
          877.0,
          878.0,
          880.0,
          880.0,
          878.0,
          880.0,
          882.0,
          879.0,
          880.0,
          880.0,
          880.0,
          878.0,
          878.0,
          879.0,
          880.0,
          880.0,
          879.0,
          880.0,
          881.0,
          880.0,
          879.0,
          879.0,
          879.0,
          881.0,
          881.0,
          879.0,
          882.0,
          882.0,
          880.0,
          880.0,
          881.0,
          882.0,
          882.0,
          880.0,
          879.0,
          880.0,
          882.0,
          881.0,
          881.0,
          879.0,
          881.0,
          883.0,
          882.0,
          881.0,
          882.0,
          882.0,
          882.0,
          882.0,
          881.0,
          881.0,
          881.0,
          882.0,
          881.0,
          881.0,
          880.0,
          880.0,
          880.0,
          879.0,
          880.0,
          879.0,
          878.0,
          880.0,
          878.0,
          879.0,
          880.0,
          880.0,
          880.0,
          881.0,
          881.0,
          880.0,
          881.0,
          880.0,
          879.0,
          879.0,
          881.0,
          880.0,
          880.0,
          882.0,
          884.0,
          882.0,
          879.0,
          880.0,
          880.0,
          880.0,
          880.0,
          881.0,
          881.0,
          880.0,
          878.0,
          879.0,
          881.0,
          881.0,
          879.0,
          880.0,
          880.0,
          880.0,
          878.0,
          880.0,
          882.0,
          883.0,
          881.0,
          881.0,
          882.0,
          880.0,
          878.0,
          880.0,
          880.0
        ],
        "WindowWidth": [
          1982.0,
          1975.0,
          1970.0,
          1974.0,
          1963.0,
          1962.0,
          1963.0,
          1963.0,
          1962.0,
          1963.0,
          1965.0,
          1966.0,
          1964.0,
          1964.0,
          1965.0,
          1966.0,
          1966.0,
          1966.0,
          1966.0,
          1964.0,
          1967.0,
          1969.0,
          1966.0,
          1965.0,
          1969.0,
          1964.0,
          1964.0,
          1968.0,
          1971.0,
          1968.0,
          1965.0,
          1966.0,
          1963.0,
          1965.0,
          1964.0,
          1963.0,
          1960.0,
          1958.0,
          1959.0,
          1962.0,
          1963.0,
          1964.0,
          1962.0,
          1960.0,
          1961.0,
          1967.0,
          1969.0,
          1964.0,
          1968.0,
          1974.0,
          1966.0,
          1967.0,
          1968.0,
          1967.0,
          1961.0,
          1963.0,
          1966.0,
          1969.0,
          1968.0,
          1964.0,
          1970.0,
          1972.0,
          1967.0,
          1964.0,
          1966.0,
          1967.0,
          1971.0,
          1971.0,
          1964.0,
          1975.0,
          1975.0,
          1968.0,
          1969.0,
          1970.0,
          1973.0,
          1972.0,
          1966.0,
          1966.0,
          1967.0,
          1973.0,
          1970.0,
          1969.0,
          1964.0,
          1970.0,
          1976.0,
          1973.0,
          1972.0,
          1974.0,
          1973.0,
          1974.0,
          1972.0,
          1971.0,
          1973.0,
          1971.0,
          1972.0,
          1970.0,
          1970.0,
          1967.0,
          1967.0,
          1967.0,
          1966.0,
          1968.0,
          1966.0,
          1962.0,
          1969.0,
          1962.0,
          1965.0,
          1969.0,
          1969.0,
          1969.0,
          1971.0,
          1971.0,
          1969.0,
          1971.0,
          1968.0,
          1966.0,
          1967.0,
          1970.0,
          1967.0,
          1969.0,
          1974.0,
          1979.0,
          1972.0,
          1966.0,
          1968.0,
          1969.0,
          1967.0,
          1966.0,
          1971.0,
          1970.0,
          1966.0,
          1962.0,
          1964.0,
          1970.0,
          1970.0,
          1965.0,
          1968.0,
          1967.0,
          1967.0,
          1963.0,
          1969.0,
          1973.0,
          1975.0,
          1970.0,
          1972.0,
          1974.0,
          1967.0,
          1961.0,
          1967.0,
          1968.0
        ]
      },
      "slices": {}
    }
  },
  "dummy_trs": 2,
  "dvars_nstd": 79.78686170469385,
  "dvars_std": 1.0349526124489798,
  "dvars_vstd": 1.0060755592517006,
  "efc": 0.5985530303249462,
  "fber": 173.50929260253906,
  "fd_mean": 0.06627199703854042,
  "fd_num": 0,
  "fd_perc": 0.0,
  "fwhm_avg": 3.187698362191791,
  "fwhm_x": 2.96755249084589,
  "fwhm_y": 3.0496153998581126,
  "fwhm_z": 3.545927195871371,
  "gcor": 0.00216646,
  "gsr_x": 0.05766506865620613,
  "gsr_y": 0.005865755025297403,
  "provenance": {
    "md5sum": "2a09cd29b6de4f5d6427426248bc93a6",
    "settings": {
      "fd_thres": 0.2,
      "testing": false
    },
    "software": "mriqc",
    "version": "22.0.6",
    "webapi_port": null,
    "webapi_url": "https://mriqc.nimh.nih.gov/api/v1"
  },
  "size_t": 148,
  "size_x": 188,
  "size_y": 188,
  "size_z": 46,
  "snr": 1.8362934531042718,
  "spacing_tr": 2.5999999046325684,
  "spacing_x": 1.0957447290420532,
  "spacing_y": 1.0957447290420532,
  "spacing_z": 1.100000023841858,
  "summary_bg_k": 38.59887395462368,
  "summary_bg_mad": 35.672610417158424,
  "summary_bg_mean": 111.9720458984375,
  "summary_bg_median": 61.635135650634766,
  "summary_bg_n": 993981.0,
  "summary_bg_p05": 30.533784866333008,
  "summary_bg_p95": 335.1959533691406,
