{
  "aor": 0.0005354362416107382,
  "aqi": 0.013004524832214764,
  "bids_meta": {
    "AcquisitionMatrixPE": 188,
    "AcquisitionNumber": 1,
    "AcquisitionTime": "10:10:51.277500",
    "BandwidthPerPixelPhaseEncode": 19.46,
    "BaseResolution": 188,
    "CogAtlasID": "TODO",
    "ConversionSoftware": "dcm2niix",
    "ConversionSoftwareVersion": "v1.0.20180606 GCC4.8.5",
    "DelayTime": 1.2,
    "DerivedVendorReportedEchoSpacing": 0.000820013,
    "DeviceSerialNumber": "18930",
    "DwellTime": 1.9e-06,
    "EchoTime": 0.02,
    "EffectiveEchoSpacing": 0.000273338,
    "FlipAngle": 80,
    "ImageComments": "Unaliased_MB2_PE2",
    "ImageOrientationPatientDICOM": [
      0.999755,
      0.015956,
      0.0153145,
      0.0114333,
      0.219867,
      -0.975463
    ],
    "ImageType": [
      "ORIGINAL",
      "PRIMARY",
      "M",
      "MB",
      "ND",
      "MOSAIC"
    ],
    "InPlanePhaseEncodingDirectionDICOM": "COL",
    "InstitutionAddress": "Oxfordlaan_55_Maastricht_12C0A2_Limburg_NL_6229_EV",
    "InstitutionName": "Scannexus",
    "InstitutionalDepartmentName": "MRI_7T",
    "MRAcquisitionType": "2D",
    "MagneticFieldStrength": 6.98,
    "Manufacturer": "Siemens",
    "ManufacturersModelName": "Investigational_Device_7T",
    "Modality": "MR",
    "MultibandAccelerationFactor": 2,
    "ParallelReductionFactorInPlane": 3,
    "PartialFourier": 0.75,
    "PatientPosition": "HFS",
    "PercentPhaseFOV": 100,
    "PhaseEncodingDirection": "j",
    "PhaseEncodingSteps": 141,
    "PhaseResolution": 1,
    "PixelBandwidth": 1400,
    "ProcedureStepDescription": "FeDem_Faruk",
    "ProtocolName": "cmrr_mbep2d_bold_AP_run10",
    "PulseSequenceDetails": "%CustomerSeq%_cmrr_mbep2d_bold",
    "ReceiveCoilName": "32Ch_Head_7T",
    "ReconMatrixPE": 188,
    "RepetitionTime": 2.6,
    "SAR": 0.0527384,
    "ScanOptions": "PFP_FS",
    "ScanningSequence": "EP",
    "SequenceName": "epfid2d1_188",
    "SequenceVariant": "SK_SS",
    "SeriesDescription": "cmrr_mbep2d_bold_AP_run10",
    "SeriesNumber": 21,
    "ShimSetting": [
      110,
      -39,
      352,
      551,
      168,
      265,
      -75,
      84
    ],
    "SliceThickness": 1.1,
    "SliceTiming": [
      0,
      0.735,
      0.0625,
      0.795,
      0.1225,
      0.855,
      0.185,
      0.9175,
      0.245,
      0.9775,
      0.305,
      1.04,
      0.3675,
      1.1,
      0.4275,
      1.1625,
      0.49,
      1.2225,
      0.55,
      1.285,
      0.6125,
      1.345,
      0.6725,
      0,
      0.735,
      0.0625,
      0.795,
      0.1225,
      0.855,
      0.185,
      0.9175,
      0.245,
      0.9775,
      0.305,
      1.04,
      0.3675,
      1.1,
      0.4275,
      1.1625,
      0.49,
      1.2225,
      0.55,
      1.285,
      0.6125,
      1.345,
      0.6725
    ],
    "SoftwareVersions": "syngo_MR_B17",
    "SpacingBetweenSlices": 1.1,
    "StationName": "MRC18930",
    "TaskName": "auditory",
    "TotalReadoutTime": 0.0511141,
    "TxRefAmp": 185,
    "dataset": "ds001942",
    "dcmmeta_affine": [
      [
        -1.095476746559143,
        0.012527965009212494,
        0.020824825391173363,
        103.05306243896484
      ],
      [
        -0.017483726143836975,
        0.24091863632202148,
        -1.072939157485962,
        21.79283905029297
      ],
      [
        0.016780756413936615,
        1.0688581466674805,
        0.24159440398216248,
        -118.52979278564453
      ],
      [
        0.0,
        0.0,
        0.0,
        1.0
      ]
    ],
    "dcmmeta_reorient_transform": [
      [
        0.0,
        -1.0,
        0.0,
        187.0
      ],
      [
        1.0,
        0.0,
        0.0,
        0.0
      ],
      [
        0.0,
        0.0,
        1.0,
        0.0
      ],
      [
        0.0,
        0.0,
        0.0,
        1.0
      ]
    ],
    "dcmmeta_shape": [
      188,
      188,
      46,
      150
    ],
    "dcmmeta_slice_dim": 2,
    "dcmmeta_version": 0.6,
    "global": {
      "const": {
        "AcquisitionMatrix": [
          188,
          0,
          0,
          188
        ],
        "AngioFlag": "N",
        "BitsAllocated": 16,
        "BitsStored": 12,
        "Columns": 1316,
        "EchoNumbers": 1,
        "EchoTime": 20.0,
        "EchoTrainLength": 1,
        "FlipAngle": 80.0,
        "HighBit": 11,
        "ImageOrientationPatient": [
          0.99975540619208,
          0.01595602073933,
          0.01531447654586,
          0.01143328775089,
          0.21986748273264,
          -0.9754627465813
        ],
        "ImagePositionPatient": [
          -730.31042959187,
          -212.58355542209,
          674.71833962045
        ],
        "ImageType": [
          "ORIGINAL",
          "PRIMARY",
          "M",
          "MB",
          "ND",
          "MOSAIC"
        ],
        "ImagedNucleus": "1H",
        "ImagingFrequency": 297.205753,
        "InPlanePhaseEncodingDirection": "COL",
        "LargestImagePixelValue": 4095,
        "MRAcquisitionType": "2D",
        "MagneticFieldStrength": 6.98,
        "Manufacturer": "SIEMENS",
        "ManufacturerModelName": "Investigational_Device_7T",
        "Modality": "MR",
        "NumberOfAverages": 1.0,
        "NumberOfPhaseEncodingSteps": 141,
        "PercentPhaseFieldOfView": 100.0,
        "PercentSampling": 100.0,
        "PerformedProcedureStepStartTime": "080807.562000",
        "PhotometricInterpretation": "MONOCHROME2",
        "PixelBandwidth": 1400.0,
        "PixelRepresentation": 0,
        "PixelSpacing": [
          1.0957447290421,
          1.0957447290421
        ],
        "ProtocolName": "cmrr_mbep2d_bold_AP_run10",
        "RepetitionTime": 2600.0,
        "Rows": 1316,
        "SAR": 0.05273839071374,
        "SamplesPerPixel": 1,
        "ScanOptions": [
          "PFP",
          "FS"
        ],
        "ScanningSequence": "EP",
        "SequenceName": "epfid2d1_188",
        "SequenceVariant": [
          "SK",
          "SS"
        ],
        "SeriesDescription": "cmrr_mbep2d_bold_AP_run10",
        "SeriesNumber": 21,
        "SeriesTime": "101101.593000",
        "SliceLocation": -45.338603166727,
        "SliceThickness": 1.1000000238419,
        "SmallestImagePixelValue": 0,
        "SoftwareVersions": "syngo MR B17",
        "SpacingBetweenSlices": 1.0999999744075,
        "SpecificCharacterSet": "ISO_IR 100",
        "StudyID": "1",
        "StudyTime": "080807.515000",
        "TransmitCoilName": "32Ch_Head_7T",
        "VariableFlipAngleFlag": "N",
        "WindowCenterWidthExplanation": "Algo1",
        "dBdt": 0.0
      },
      "slices": {}
    },
    "modality": "bold",
    "run_id": 10,
    "session_id": "SES02",
    "subject_id": "S02",
    "task_id": "auditory",
    "time": {
      "samples": {
        "AcquisitionNumber": [
          1,
          2,
          3,
          4,
          5,
          6,
          7,
          8,
          9,
          10,
          11,
          12,
          13,
          14,
          15,
          16,
          17,
          18,
          19,
          20,
          21,
          22,
          23,
          24,
          25,
          26,
          27,
          28,
          29,
          30,
          31,
          32,
          33,
          34,
          35,
          36,
          37,
          38,
          39,
          40,
          41,
          42,
          43,
          44,
          45,
          46,
          47,
          48,
          49,
          50,
          51,
          52,
          53,
          54,
          55,
          56,
          57,
          58,
          59,
          60,
          61,
          62,
          63,
          64,
          65,
          66,
          67,
          68,
          69,
          70,
          71,
          72,
          73,
          74,
          75,
          76,
          77,
          78,
          79,
          80,
          81,
          82,
          83,
          84,
          85,
          86,
          87,
          88,
          89,
          90,
          91,
          92,
          93,
          94,
          95,
          96,
          97,
          98,
          99,
          100,
          101,
          102,
          103,
          104,
          105,
          106,
          107,
          108,
          109,
          110,
          111,
          112,
          113,
          114,
          115,
          116,
          117,
          118,
          119,
          120,
          121,
          122,
          123,
          124,
          125,
          126,
          127,
          128,
          129,
          130,
          131,
          132,
          133,
          134,
          135,
          136,
          137,
          138,
          139,
          140,
          141,
          142,
          143,
          144,
          145,
          146,
          147,
          148,
          149,
          150
        ],
        "AcquisitionTime": [
          "101051.277500",
          "101053.887500",
          "101056.500000",
          "101059.110000",
          "101101.720000",
          "101104.330000",
          "101106.940000",
          "101109.550000",
          "101112.162500",
          "101114.772500",
          "101117.382500",
          "101119.992500",
          "101122.602500",
          "101125.215000",
          "101127.825000",
          "101130.435000",
          "101133.045000",
          "101135.655000",
          "101138.265000",
          "101140.877500",
          "101143.487500",
          "101146.097500",
          "101148.707500",
          "101151.317500",
          "101153.927500",
          "101156.540000",
          "101159.150000",
          "101201.760000",
          "101204.370000",
          "101206.980000",
          "101209.592500",
          "101212.202500",
          "101214.812500",
          "101217.422500",
          "101220.032500",
          "101222.642500",
          "101225.255000",
          "101227.865000",
          "101230.475000",
          "101233.085000",
          "101235.695000",
          "101238.305000",
          "101240.917500",
          "101243.527500",
          "101246.137500",
          "101248.747500",
          "101251.357500",
          "101253.970000",
          "101256.580000",
          "101259.190000",
          "101301.800000",
          "101304.410000",
          "101307.020000",
          "101309.632500",
          "101312.242500",
          "101314.852500",
          "101317.462500",
          "101320.072500",
          "101322.682500",
          "101325.295000",
          "101327.905000",
          "101330.515000",
          "101333.125000",
          "101335.735000",
          "101338.347500",
          "101340.957500",
          "101343.567500",
          "101346.177500",
          "101348.787500",
          "101351.397500",
          "101354.010000",
          "101356.620000",
          "101359.230000",
          "101401.840000",
          "101404.450000",
          "101407.060000",
          "101409.672500",
          "101412.282500",
          "101414.892500",
          "101417.502500",
          "101420.112500",
          "101422.725000",
          "101425.335000",
          "101427.945000",
          "101430.555000",
          "101433.165000",
          "101435.775000",
          "101438.387500",
          "101440.997500",
          "101443.607500",
          "101446.217500",
          "101448.827500",
          "101451.437500",
          "101454.050000",
          "101456.660000",
          "101459.270000",
          "101501.880000",
          "101504.490000",
          "101507.102500",
          "101509.712500",
          "101512.322500",
          "101514.932500",
          "101517.542500",
          "101520.152500",
          "101522.765000",
          "101525.375000",
          "101527.985000",
          "101530.595000",
          "101533.205000",
          "101535.815000",
          "101538.427500",
          "101541.037500",
          "101543.647500",
          "101546.257500",
          "101548.867500",
          "101551.480000",
          "101554.090000",
          "101556.700000",
          "101559.310000",
          "101601.920000",
          "101604.530000",
          "101607.142500",
          "101609.752500",
          "101612.362500",
          "101614.972500",
          "101617.582500",
          "101620.195000",
          "101622.805000",
          "101625.415000",
          "101628.025000",
          "101630.635000",
          "101633.245000",
          "101635.857500",
          "101638.467500",
          "101641.077500",
          "101643.687500",
          "101646.297500",
          "101648.907500",
          "101651.520000",
          "101654.130000",
          "101656.740000",
          "101659.350000",
          "101701.960000",
          "101704.572500",
          "101707.182500",
          "101709.792500",
          "101712.402500",
          "101715.012500",
          "101717.622500",
          "101720.235000"
        ],
        "ContentTime": [
          "101101.593000",
          "101101.609000",
          "101102.093000",
          "101104.593000",
          "101107.093000",
          "101109.593000",
          "101112.593000",
          "101115.093000",
          "101117.593000",
          "101120.093000",
          "101123.093000",
          "101125.593000",
          "101128.093000",
          "101130.593000",
          "101133.093000",
          "101135.593000",
          "101138.593000",
          "101141.093000",
          "101143.593000",
          "101146.093000",
          "101148.593000",
          "101151.593000",
          "101154.093000",
          "101156.593000",
          "101159.093000",
          "101201.593000",
          "101204.593000",
          "101207.093000",
          "101209.593000",
          "101212.093000",
          "101214.593000",
          "101217.593000",
          "101220.093000",
          "101222.593000",
          "101225.093000",
          "101228.093000",
          "101230.593000",
          "101233.093000",
          "101235.593000",
          "101238.093000",
          "101240.593000",
          "101243.593000",
          "101246.093000",
          "101248.593000",
          "101251.093000",
          "101253.593000",
          "101256.593000",
          "101259.093000",
          "101301.593000",
          "101304.093000",
          "101306.593000",
          "101309.593000",
          "101312.093000",
          "101314.593000",
          "101317.093000",
          "101319.593000",
          "101322.593000",
          "101325.093000",
          "101327.593000",
          "101330.093000",
          "101333.093000",
          "101335.593000",
          "101338.093000",
          "101340.593000",
          "101343.093000",
          "101345.593000",
          "101348.593000",
          "101351.093000",
          "101353.593000",
          "101356.093000",
          "101358.593000",
          "101401.593000",
          "101404.093000",
          "101406.593000",
          "101409.093000",
          "101411.593000",
          "101414.593000",
          "101417.093000",
          "101419.593000",
          "101422.093000",
          "101424.593000",
          "101427.593000",
          "101430.093000",
          "101432.593000",
          "101435.093000",
          "101437.593000",
          "101440.593000",
          "101443.093000",
          "101445.593000",
          "101448.093000",
          "101450.593000",
          "101453.593000",
          "101456.093000",
          "101458.593000",
          "101501.093000",
          "101503.593000",
          "101506.593000",
          "101509.093000",
          "101511.593000",
          "101514.093000",
          "101516.593000",
          "101519.593000",
          "101522.093000",
          "101524.593000",
          "101527.093000",
          "101529.593000",
          "101532.593000",
          "101535.093000",
          "101537.593000",
          "101540.093000",
          "101542.593000",
          "101545.593000",
          "101548.093000",
          "101550.593000",
          "101553.093000",
          "101555.593000",
          "101558.593000",
          "101601.093000",
          "101603.593000",
          "101606.093000",
          "101608.593000",
          "101611.593000",
          "101614.093000",
          "101616.593000",
          "101619.093000",
          "101621.593000",
          "101624.593000",
          "101627.093000",
          "101629.593000",
          "101632.093000",
          "101634.593000",
          "101637.593000",
          "101640.093000",
          "101642.593000",
          "101645.093000",
          "101647.593000",
          "101650.593000",
          "101653.093000",
          "101655.593000",
          "101658.093000",
          "101700.593000",
          "101703.593000",
          "101706.093000",
          "101708.593000",
          "101711.093000",
          "101713.593000",
          "101716.593000",
          "101719.093000",
          "101721.593000",
          "101728.953000"
        ],
        "InstanceCreationTime": [
          "101101.593000",
          "101101.609000",
          "101102.093000",
          "101104.593000",
          "101107.093000",
          "101109.593000",
          "101112.593000",
          "101115.093000",
          "101117.593000",
          "101120.093000",
          "101123.093000",
          "101125.593000",
          "101128.093000",
          "101130.593000",
          "101133.093000",
          "101135.593000",
          "101138.593000",
          "101141.093000",
          "101143.593000",
          "101146.093000",
          "101148.593000",
          "101151.593000",
          "101154.093000",
          "101156.593000",
          "101159.093000",
          "101201.593000",
          "101204.593000",
          "101207.093000",
          "101209.593000",
          "101212.093000",
          "101214.593000",
          "101217.593000",
          "101220.093000",
          "101222.593000",
          "101225.093000",
          "101228.093000",
          "101230.593000",
          "101233.093000",
          "101235.593000",
          "101238.093000",
          "101240.593000",
          "101243.593000",
          "101246.093000",
          "101248.593000",
          "101251.093000",
          "101253.593000",
          "101256.593000",
          "101259.093000",
          "101301.593000",
          "101304.093000",
          "101306.593000",
          "101309.593000",
          "101312.093000",
          "101314.593000",
          "101317.093000",
          "101319.593000",
          "101322.593000",
          "101325.093000",
          "101327.593000",
          "101330.093000",
          "101333.093000",
          "101335.593000",
          "101338.093000",
          "101340.593000",
          "101343.093000",
          "101345.593000",
          "101348.593000",
          "101351.093000",
          "101353.593000",
          "101356.093000",
          "101358.593000",
          "101401.593000",
          "101404.093000",
          "101406.593000",
          "101409.093000",
          "101411.593000",
          "101414.593000",
          "101417.093000",
          "101419.593000",
          "101422.093000",
          "101424.593000",
          "101427.593000",
          "101430.093000",
          "101432.593000",
          "101435.093000",
          "101437.593000",
          "101440.593000",
          "101443.093000",
          "101445.593000",
          "101448.093000",
          "101450.593000",
          "101453.593000",
          "101456.093000",
          "101458.593000",
          "101501.093000",
          "101503.593000",
          "101506.593000",
          "101509.093000",
          "101511.593000",
          "101514.093000",
          "101516.593000",
          "101519.593000",
          "101522.093000",
          "101524.593000",
          "101527.093000",
          "101529.593000",
          "101532.593000",
          "101535.093000",
          "101537.593000",
          "101540.093000",
          "101542.593000",
          "101545.593000",
          "101548.093000",
          "101550.593000",
          "101553.093000",
          "101555.593000",
          "101558.593000",
          "101601.093000",
          "101603.593000",
          "101606.093000",
          "101608.593000",
          "101611.593000",
          "101614.093000",
          "101616.593000",
          "101619.093000",
          "101621.593000",
          "101624.593000",
          "101627.093000",
          "101629.593000",
          "101632.093000",
          "101634.593000",
          "101637.593000",
          "101640.093000",
          "101642.593000",
          "101645.093000",
          "101647.593000",
          "101650.593000",
          "101653.093000",
          "101655.593000",
          "101658.093000",
          "101700.593000",
          "101703.593000",
          "101706.093000",
          "101708.593000",
          "101711.093000",
          "101713.593000",
          "101716.593000",
          "101719.093000",
          "101721.593000",
          "101728.953000"
        ],
        "InstanceNumber": [
          1,
          2,
          3,
          4,
          5,
          6,
          7,
          8,
          9,
          10,
          11,
          12,
          13,
          14,
          15,
          16,
          17,
          18,
          19,
          20,
          21,
          22,
          23,
          24,
          25,
          26,
          27,
          28,
          29,
          30,
          31,
          32,
          33,
          34,
          35,
          36,
          37,
          38,
          39,
          40,
          41,
          42,
          43,
          44,
          45,
          46,
          47,
          48,
          49,
          50,
          51,
          52,
          53,
          54,
          55,
          56,
          57,
          58,
          59,
          60,
          61,
          62,
          63,
          64,
          65,
          66,
          67,
          68,
          69,
          70,
          71,
          72,
          73,
          74,
          75,
          76,
          77,
          78,
          79,
          80,
          81,
          82,
          83,
          84,
          85,
          86,
          87,
          88,
          89,
          90,
          91,
          92,
          93,
          94,
          95,
          96,
          97,
          98,
          99,
          100,
          101,
          102,
          103,
          104,
          105,
          106,
          107,
          108,
          109,
          110,
          111,
          112,
          113,
          114,
          115,
          116,
          117,
          118,
          119,
          120,
          121,
          122,
          123,
          124,
          125,
          126,
          127,
          128,
          129,
          130,
          131,
          132,
          133,
          134,
          135,
          136,
          137,
          138,
          139,
          140,
          141,
          142,
          143,
          144,
          145,
          146,
          147,
          148,
          149,
          150
        ],
        "WindowCenter": [
          883.0,
          880.0,
          880.0,
          880.0,
          879.0,
          879.0,
          879.0,
          880.0,
          880.0,
          879.0,
          879.0,
          880.0,
          879.0,
          880.0,
          881.0,
          881.0,
          880.0,
          880.0,
          880.0,
          880.0,
          881.0,
          880.0,
          879.0,
          880.0,
          880.0,
          879.0,
          880.0,
          880.0,
          880.0,
          881.0,
          882.0,
          880.0,
          879.0,
          881.0,
          881.0,
          879.0,
          879.0,
          882.0,
          882.0,
          882.0,
          880.0,
          881.0,
          880.0,
          880.0,
          880.0,
          880.0,
          880.0,
          881.0,
          881.0,
          880.0,
          880.0,
          881.0,
          883.0,
          882.0,
          881.0,
          882.0,
          883.0,
          883.0,
          883.0,
          882.0,
          883.0,
          883.0,
          883.0,
          882.0,
          881.0,
          881.0,
          883.0,
          882.0,
          881.0,
          882.0,
          883.0,
          882.0,
          882.0,
          881.0,
          880.0,
          881.0,
          882.0,
          881.0,
          881.0,
          883.0,
          883.0,
          882.0,
          883.0,
          884.0,
          883.0,
          882.0,
          882.0,
          883.0,
          883.0,
          882.0,
          884.0,
          882.0,
          881.0,
          883.0,
          884.0,
          883.0,
          881.0,
          881.0,
          882.0,
          884.0,
          884.0,
          882.0,
          883.0,
          883.0,
          883.0,
          883.0,
          882.0,
          882.0,
          882.0,
          883.0,
          883.0,
          883.0,
          884.0,
          882.0,
          882.0,
          881.0,
          882.0,
          884.0,
          883.0,
          882.0,
          882.0,
          883.0,
          884.0,
          884.0,
          883.0,
          881.0,
          882.0,
          884.0,
          884.0,
          883.0,
          884.0,
          884.0,
          884.0,
          882.0,
          883.0,
          882.0,
          881.0,
          882.0,
          882.0,
          883.0,
          882.0,
          882.0,
          882.0,
          883.0,
          883.0,
          880.0,
          880.0,
          880.0,
          881.0,
          881.0
        ],
        "WindowWidth": [
          1976.0,
          1968.0,
          1968.0,
          1967.0,
          1965.0,
          1964.0,
          1963.0,
          1969.0,
          1968.0,
          1966.0,
          1966.0,
          1969.0,
          1966.0,
          1968.0,
          1972.0,
          1971.0,
          1968.0,
          1969.0,
          1968.0,
          1969.0,
          1972.0,
          1967.0,
          1964.0,
          1966.0,
          1969.0,
          1966.0,
          1969.0,
          1968.0,
          1969.0,
          1971.0,
          1972.0,
          1969.0,
          1967.0,
          1969.0,
          1972.0,
          1964.0,
          1966.0,
          1973.0,
          1974.0,
          1973.0,
          1969.0,
          1970.0,
          1969.0,
          1969.0,
          1969.0,
          1967.0,
          1970.0,
          1972.0,
          1971.0,
          1967.0,
          1969.0,
          1972.0,
          1976.0,
          1975.0,
          1972.0,
          1975.0,
          1976.0,
          1977.0,
          1976.0,
          1974.0,
          1976.0,
          1976.0,
          1976.0,
          1973.0,
          1971.0,
          1971.0,
          1977.0,
          1974.0,
          1971.0,
          1973.0,
          1975.0,
          1974.0,
          1974.0,
          1969.0,
          1966.0,
          1972.0,
          1975.0,
          1971.0,
          1971.0,
          1976.0,
          1975.0,
          1974.0,
          1976.0,
          1979.0,
          1975.0,
          1973.0,
          1975.0,
          1975.0,
          1976.0,
          1973.0,
          1979.0,
          1974.0,
          1973.0,
          1975.0,
          1980.0,
          1975.0,
          1969.0,
          1972.0,
          1975.0,
          1980.0,
          1979.0,
          1973.0,
          1977.0,
          1975.0,
          1976.0,
          1976.0,
          1975.0,
          1975.0,
          1972.0,
          1976.0,
          1979.0,
          1977.0,
          1979.0,
          1973.0,
          1973.0,
          1972.0,
          1973.0,
          1980.0,
          1977.0,
          1975.0,
          1975.0,
          1978.0,
          1980.0,
          1980.0,
          1978.0,
          1971.0,
          1972.0,
          1978.0,
          1978.0,
          1978.0,
          1980.0,
          1981.0,
          1979.0,
          1973.0,
          1976.0,
          1972.0,
          1970.0,
          1973.0,
          1975.0,
          1976.0,
          1974.0,
          1975.0,
          1973.0,
          1975.0,
          1975.0,
          1968.0,
          1969.0,
          1969.0,
          1971.0,
          1970.0
        ]
      },
      "slices": {}
    }
  },
  "dummy_trs": 1,
  "dvars_nstd": 79.40098179986488,
  "dvars_std": 1.0344874151351353,
  "dvars_vstd": 1.0065081054054057,
  "efc": 0.5984754325435792,
  "fber": 174.024658203125,
  "fd_mean": 0.06366970715380683,
  "fd_num": 0,
  "fd_perc": 0.0,
  "fwhm_avg": 3.210716049041236,
  "fwhm_x": 2.9793253058621008,
  "fwhm_y": 3.065659282647646,
  "fwhm_z": 3.58716355861396,
  "gcor": 0.00158874,
  "gsr_x": 0.05884139984846115,
  "gsr_y": 0.005652565974742174,
  "provenance": {
    "md5sum": "d05adf15740e1e1982a6bda297fd9bf9",
    "settings": {
      "fd_thres": 0.2,
      "testing": false
    },
    "software": "mriqc",
    "version": "22.0.6",
    "webapi_port": null,
    "webapi_url": "https://mriqc.nimh.nih.gov/api/v1"
  },
  "size_t": 149,
  "size_x": 188,
  "size_y": 188,
  "size_z": 46,
  "snr": 1.8316486725084433,
  "spacing_tr": 2.5999999046325684,
  "spacing_x": 1.0957447290420532,
  "spacing_y": 1.0957447290420532,
  "spacing_z": 1.100000023841858,
  "summary_bg_k": 38.62695987768059,
  "summary_bg_mad": 35.811310279854624,
  "summary_bg_mean": 112.69929504394531,
  "summary_bg_median": 61.61745071411133,
  "summary_bg_n": 993618.0,
  "summary_bg_p05": 30.395973205566406,
  "summary_bg_p95": 338.50335693359375,
