{
  "aor": 0.0006844666666666666,
  "aqi": 0.012675182666666665,
  "bids_meta": {
    "AcquisitionMatrixPE": 188,
    "AcquisitionNumber": 1,
    "AcquisitionTime": "09:33:48.377500",
    "BandwidthPerPixelPhaseEncode": 19.46,
    "BaseResolution": 188,
    "CogAtlasID": "TODO",
    "ConversionSoftware": "dcm2niix",
    "ConversionSoftwareVersion": "v1.0.20180606 GCC4.8.5",
    "DelayTime": 1.2,
    "DerivedVendorReportedEchoSpacing": 0.000820013,
    "DeviceSerialNumber": "18930",
    "DwellTime": 1.9e-06,
    "EchoTime": 0.02,
    "EffectiveEchoSpacing": 0.000273338,
    "FlipAngle": 80,
    "ImageComments": "Unaliased_MB2_PE2",
    "ImageOrientationPatientDICOM": [
      0.999755,
      0.015956,
      0.0153145,
      0.0114333,
      0.219867,
      -0.975463
    ],
    "ImageType": [
      "ORIGINAL",
      "PRIMARY",
      "M",
      "MB",
      "ND",
      "MOSAIC"
    ],
    "InPlanePhaseEncodingDirectionDICOM": "COL",
    "InstitutionAddress": "Oxfordlaan_55_Maastricht_12C0A2_Limburg_NL_6229_EV",
    "InstitutionName": "Scannexus",
    "InstitutionalDepartmentName": "MRI_7T",
    "MRAcquisitionType": "2D",
    "MagneticFieldStrength": 6.98,
    "Manufacturer": "Siemens",
    "ManufacturersModelName": "Investigational_Device_7T",
    "Modality": "MR",
    "MultibandAccelerationFactor": 2,
    "ParallelReductionFactorInPlane": 3,
    "PartialFourier": 0.75,
    "PatientPosition": "HFS",
    "PercentPhaseFOV": 100,
    "PhaseEncodingDirection": "j",
    "PhaseEncodingSteps": 141,
    "PhaseResolution": 1,
    "PixelBandwidth": 1400,
    "ProcedureStepDescription": "FeDem_Faruk",
    "ProtocolName": "cmrr_mbep2d_bold_AP_run6",
    "PulseSequenceDetails": "%CustomerSeq%_cmrr_mbep2d_bold",
    "ReceiveCoilName": "32Ch_Head_7T",
    "ReconMatrixPE": 188,
    "RepetitionTime": 2.6,
    "SAR": 0.0530507,
    "ScanOptions": "PFP_FS",
    "ScanningSequence": "EP",
    "SequenceName": "epfid2d1_188",
    "SequenceVariant": "SK_SS",
    "SeriesDescription": "cmrr_mbep2d_bold_AP_run6",
    "SeriesNumber": 15,
    "ShimSetting": [
      110,
      -39,
      352,
      551,
      168,
      265,
      -75,
      84
    ],
    "SliceThickness": 1.1,
    "SliceTiming": [
      0,
      0.735,
      0.0625,
      0.795,
      0.1225,
      0.8575,
      0.185,
      0.9175,
      0.245,
      0.98,
      0.3075,
      1.04,
      0.3675,
      1.1,
      0.43,
      1.1625,
      0.49,
      1.2225,
      0.55,
      1.285,
      0.6125,
      1.345,
      0.6725,
      0,
      0.735,
      0.0625,
      0.795,
      0.1225,
      0.8575,
      0.185,
      0.9175,
      0.245,
      0.98,
      0.3075,
      1.04,
      0.3675,
      1.1,
      0.43,
      1.1625,
      0.49,
      1.2225,
      0.55,
      1.285,
      0.6125,
      1.345,
      0.6725
    ],
    "SoftwareVersions": "syngo_MR_B17",
    "SpacingBetweenSlices": 1.1,
    "StationName": "MRC18930",
    "TaskName": "auditory",
    "TotalReadoutTime": 0.0511141,
    "TxRefAmp": 185,
    "dataset": "ds001942",
    "dcmmeta_affine": [
      [
        -1.095476746559143,
        0.012527965009212494,
        0.020824825391173363,
        103.05306243896484
      ],
      [
        -0.017483726143836975,
        0.24091863632202148,
        -1.072939157485962,
        21.79283905029297
      ],
      [
        0.016780756413936615,
        1.0688581466674805,
        0.24159440398216248,
        -118.52979278564453
      ],
      [
        0.0,
        0.0,
        0.0,
        1.0
      ]
    ],
    "dcmmeta_reorient_transform": [
      [
        0.0,
        -1.0,
        0.0,
        187.0
      ],
      [
        1.0,
        0.0,
        0.0,
        0.0
      ],
      [
        0.0,
        0.0,
        1.0,
        0.0
      ],
      [
        0.0,
        0.0,
        0.0,
        1.0
      ]
    ],
    "dcmmeta_shape": [
      188,
      188,
      46,
      150
    ],
    "dcmmeta_slice_dim": 2,
    "dcmmeta_version": 0.6,
    "global": {
      "const": {
        "AcquisitionMatrix": [
          188,
          0,
          0,
          188
        ],
        "AngioFlag": "N",
        "BitsAllocated": 16,
        "BitsStored": 12,
        "Columns": 1316,
        "EchoNumbers": 1,
        "EchoTime": 20.0,
        "EchoTrainLength": 1,
        "FlipAngle": 80.0,
        "HighBit": 11,
        "ImageOrientationPatient": [
          0.99975540619208,
          0.01595602073933,
          0.01531447654586,
          0.01143328775089,
          0.21986748273264,
          -0.9754627465813
        ],
        "ImagePositionPatient": [
          -730.31042959187,
          -212.58355542209,
          674.71833962045
        ],
        "ImageType": [
          "ORIGINAL",
          "PRIMARY",
          "M",
          "MB",
          "ND",
          "MOSAIC"
        ],
        "ImagedNucleus": "1H",
        "ImagingFrequency": 297.20574,
        "InPlanePhaseEncodingDirection": "COL",
        "LargestImagePixelValue": 4095,
        "MRAcquisitionType": "2D",
        "MagneticFieldStrength": 6.98,
        "Manufacturer": "SIEMENS",
        "ManufacturerModelName": "Investigational_Device_7T",
        "Modality": "MR",
        "NumberOfAverages": 1.0,
        "NumberOfPhaseEncodingSteps": 141,
        "PercentPhaseFieldOfView": 100.0,
        "PercentSampling": 100.0,
        "PerformedProcedureStepStartTime": "080807.562000",
        "PhotometricInterpretation": "MONOCHROME2",
        "PixelBandwidth": 1400.0,
        "PixelRepresentation": 0,
        "PixelSpacing": [
          1.0957447290421,
          1.0957447290421
        ],
        "ProtocolName": "cmrr_mbep2d_bold_AP_run6",
        "RepetitionTime": 2600.0,
        "Rows": 1316,
        "SAR": 0.05305065869575,
        "SamplesPerPixel": 1,
        "ScanOptions": [
          "PFP",
          "FS"
        ],
        "ScanningSequence": "EP",
        "SequenceName": "epfid2d1_188",
        "SequenceVariant": [
          "SK",
          "SS"
        ],
        "SeriesDescription": "cmrr_mbep2d_bold_AP_run6",
        "SeriesNumber": 15,
        "SeriesTime": "093358.187000",
        "SliceLocation": -45.338603166727,
        "SliceThickness": 1.1000000238419,
        "SmallestImagePixelValue": 0,
        "SoftwareVersions": "syngo MR B17",
        "SpacingBetweenSlices": 1.0999999744075,
        "SpecificCharacterSet": "ISO_IR 100",
        "StudyID": "1",
        "StudyTime": "080807.515000",
        "TransmitCoilName": "32Ch_Head_7T",
        "VariableFlipAngleFlag": "N",
        "WindowCenterWidthExplanation": "Algo1",
        "dBdt": 0.0
      },
      "slices": {}
    },
    "modality": "bold",
    "run_id": 6,
    "session_id": "SES02",
    "subject_id": "S02",
    "task_id": "auditory",
    "time": {
      "samples": {
        "AcquisitionNumber": [
          1,
          2,
          3,
          4,
          5,
          6,
          7,
          8,
          9,
          10,
          11,
          12,
          13,
          14,
          15,
          16,
          17,
          18,
          19,
          20,
          21,
          22,
          23,
          24,
          25,
          26,
          27,
          28,
          29,
          30,
          31,
          32,
          33,
          34,
          35,
          36,
          37,
          38,
          39,
          40,
          41,
          42,
          43,
          44,
          45,
          46,
          47,
          48,
          49,
          50,
          51,
          52,
          53,
          54,
          55,
          56,
          57,
          58,
          59,
          60,
          61,
          62,
          63,
          64,
          65,
          66,
          67,
          68,
          69,
          70,
          71,
          72,
          73,
          74,
          75,
          76,
          77,
          78,
          79,
          80,
          81,
          82,
          83,
          84,
          85,
          86,
          87,
          88,
          89,
          90,
          91,
          92,
          93,
          94,
          95,
          96,
          97,
          98,
          99,
          100,
          101,
          102,
          103,
          104,
          105,
          106,
          107,
          108,
          109,
          110,
          111,
          112,
          113,
          114,
          115,
          116,
          117,
          118,
          119,
          120,
          121,
          122,
          123,
          124,
          125,
          126,
          127,
          128,
          129,
          130,
          131,
          132,
          133,
          134,
          135,
          136,
          137,
          138,
          139,
          140,
          141,
          142,
          143,
          144,
          145,
          146,
          147,
          148,
          149,
          150
        ],
        "AcquisitionTime": [
          "093348.377500",
          "093350.990000",
          "093353.600000",
          "093356.210000",
          "093358.820000",
          "093401.430000",
          "093404.042500",
          "093406.652500",
          "093409.262500",
          "093411.872500",
          "093414.482500",
          "093417.092500",
          "093419.705000",
          "093422.315000",
          "093424.925000",
          "093427.535000",
          "093430.145000",
          "093432.755000",
          "093435.367500",
          "093437.977500",
          "093440.587500",
          "093443.197500",
          "093445.807500",
          "093448.420000",
          "093451.030000",
          "093453.640000",
          "093456.250000",
          "093458.860000",
          "093501.470000",
          "093504.082500",
          "093506.692500",
          "093509.302500",
          "093511.912500",
          "093514.522500",
          "093517.132500",
          "093519.745000",
          "093522.355000",
          "093524.965000",
          "093527.575000",
          "093530.185000",
          "093532.797500",
          "093535.407500",
          "093538.017500",
          "093540.627500",
          "093543.237500",
          "093545.847500",
          "093548.460000",
          "093551.070000",
          "093553.680000",
          "093556.290000",
          "093558.900000",
          "093601.510000",
          "093604.122500",
          "093606.732500",
          "093609.342500",
          "093611.952500",
          "093614.562500",
          "093617.175000",
          "093619.785000",
          "093622.395000",
          "093625.005000",
          "093627.615000",
          "093630.225000",
          "093632.837500",
          "093635.447500",
          "093638.057500",
          "093640.667500",
          "093643.277500",
          "093645.887500",
          "093648.500000",
          "093651.110000",
          "093653.720000",
          "093656.330000",
          "093658.940000",
          "093701.552500",
          "093704.162500",
          "093706.772500",
          "093709.382500",
          "093711.992500",
          "093714.602500",
          "093717.215000",
          "093719.825000",
          "093722.435000",
          "093725.045000",
          "093727.655000",
          "093730.265000",
          "093732.877500",
          "093735.487500",
          "093738.097500",
          "093740.707500",
          "093743.317500",
          "093745.930000",
          "093748.540000",
          "093751.150000",
          "093753.760000",
          "093756.370000",
          "093758.980000",
          "093801.592500",
          "093804.202500",
          "093806.812500",
          "093809.422500",
          "093812.032500",
          "093814.642500",
          "093817.255000",
          "093819.865000",
          "093822.475000",
          "093825.085000",
          "093827.695000",
          "093830.307500",
          "093832.917500",
          "093835.527500",
          "093838.137500",
          "093840.747500",
          "093843.357500",
          "093845.970000",
          "093848.580000",
          "093851.190000",
          "093853.800000",
          "093856.410000",
          "093859.020000",
          "093901.632500",
          "093904.242500",
          "093906.852500",
          "093909.462500",
          "093912.072500",
          "093914.685000",
          "093917.295000",
          "093919.905000",
          "093922.515000",
          "093925.125000",
          "093927.735000",
          "093930.347500",
          "093932.957500",
          "093935.567500",
          "093938.177500",
          "093940.787500",
          "093943.397500",
          "093946.010000",
          "093948.620000",
          "093951.230000",
          "093953.840000",
          "093956.450000",
          "093959.062500",
          "094001.672500",
          "094004.282500",
          "094006.892500",
          "094009.502500",
          "094012.112500",
          "094014.725000",
          "094017.335000"
        ],
        "ContentTime": [
          "093358.187000",
          "093358.187000",
          "093359.171000",
          "093401.171000",
          "093403.671000",
          "093406.671000",
          "093409.171000",
          "093411.671000",
          "093414.171000",
          "093416.671000",
          "093419.671000",
          "093422.171000",
          "093424.671000",
          "093427.171000",
          "093429.671000",
          "093432.671000",
          "093435.171000",
          "093437.671000",
          "093440.171000",
          "093442.671000",
          "093445.671000",
          "093448.171000",
          "093450.671000",
          "093453.171000",
          "093455.671000",
          "093458.671000",
          "093501.171000",
          "093503.671000",
          "093506.156000",
          "093508.671000",
          "093511.671000",
          "093514.171000",
          "093516.671000",
          "093519.171000",
          "093521.671000",
          "093524.671000",
          "093527.171000",
          "093529.656000",
          "093532.171000",
          "093534.671000",
          "093537.671000",
          "093540.171000",
          "093542.656000",
          "093545.171000",
          "093547.671000",
          "093550.671000",
          "093553.171000",
          "093555.671000",
          "093558.171000",
          "093600.671000",
          "093603.671000",
          "093606.171000",
          "093608.671000",
          "093611.171000",
          "093613.671000",
          "093616.671000",
          "093619.171000",
          "093621.671000",
          "093624.171000",
          "093626.671000",
          "093629.671000",
          "093632.171000",
          "093634.671000",
          "093637.171000",
          "093639.671000",
          "093642.671000",
          "093645.171000",
          "093647.671000",
          "093650.171000",
          "093652.671000",
          "093655.671000",
          "093658.171000",
          "093700.671000",
          "093703.171000",
          "093705.671000",
          "093708.671000",
          "093711.171000",
          "093713.671000",
          "093716.171000",
          "093718.671000",
          "093721.671000",
          "093724.171000",
          "093726.671000",
          "093729.171000",
          "093731.671000",
          "093734.671000",
          "093737.171000",
          "093739.656000",
          "093742.171000",
          "093744.671000",
          "093747.671000",
          "093750.171000",
          "093752.671000",
          "093755.171000",
          "093757.671000",
          "093800.671000",
          "093803.156000",
          "093805.671000",
          "093808.171000",
          "093810.671000",
          "093813.671000",
          "093816.171000",
          "093818.671000",
          "093821.171000",
          "093823.671000",
          "093826.671000",
          "093829.171000",
          "093831.671000",
          "093834.171000",
          "093836.671000",
          "093839.671000",
          "093842.171000",
          "093844.671000",
          "093847.171000",
          "093849.671000",
          "093852.671000",
          "093855.171000",
          "093857.671000",
          "093900.171000",
          "093902.671000",
          "093905.656000",
          "093908.171000",
          "093910.671000",
          "093913.171000",
          "093915.671000",
          "093918.671000",
          "093921.171000",
          "093923.671000",
          "093926.171000",
          "093928.671000",
          "093931.671000",
          "093934.171000",
          "093936.671000",
          "093939.171000",
          "093941.671000",
          "093944.671000",
          "093947.171000",
          "093949.656000",
          "093952.171000",
          "093954.671000",
          "093957.671000",
          "094000.171000",
          "094002.671000",
          "094005.171000",
          "094007.671000",
          "094010.671000",
          "094013.171000",
          "094015.671000",
          "094018.171000",
          "094025.578000"
        ],
        "InstanceCreationTime": [
          "093358.187000",
          "093358.187000",
          "093359.171000",
          "093401.171000",
          "093403.671000",
          "093406.671000",
          "093409.171000",
          "093411.671000",
          "093414.171000",
          "093416.671000",
          "093419.671000",
          "093422.171000",
          "093424.671000",
          "093427.171000",
          "093429.671000",
          "093432.671000",
          "093435.171000",
          "093437.671000",
          "093440.171000",
          "093442.671000",
          "093445.671000",
          "093448.171000",
          "093450.671000",
          "093453.171000",
          "093455.671000",
          "093458.671000",
          "093501.171000",
          "093503.671000",
          "093506.156000",
          "093508.671000",
          "093511.671000",
          "093514.171000",
          "093516.671000",
          "093519.171000",
          "093521.671000",
          "093524.671000",
          "093527.171000",
          "093529.656000",
          "093532.171000",
          "093534.671000",
          "093537.671000",
          "093540.171000",
          "093542.656000",
          "093545.171000",
          "093547.671000",
          "093550.671000",
          "093553.171000",
          "093555.671000",
          "093558.171000",
          "093600.671000",
          "093603.671000",
          "093606.171000",
          "093608.671000",
          "093611.171000",
          "093613.671000",
          "093616.671000",
          "093619.171000",
          "093621.671000",
          "093624.171000",
          "093626.671000",
          "093629.671000",
          "093632.171000",
          "093634.671000",
          "093637.171000",
          "093639.671000",
          "093642.671000",
          "093645.171000",
          "093647.671000",
          "093650.171000",
          "093652.671000",
          "093655.671000",
          "093658.171000",
          "093700.671000",
          "093703.171000",
          "093705.671000",
          "093708.671000",
          "093711.171000",
          "093713.671000",
          "093716.171000",
          "093718.671000",
          "093721.671000",
          "093724.171000",
          "093726.671000",
          "093729.171000",
          "093731.671000",
          "093734.671000",
          "093737.171000",
          "093739.656000",
          "093742.171000",
          "093744.671000",
          "093747.671000",
          "093750.171000",
          "093752.671000",
          "093755.171000",
          "093757.671000",
          "093800.671000",
          "093803.156000",
          "093805.671000",
          "093808.171000",
          "093810.671000",
          "093813.671000",
          "093816.171000",
          "093818.671000",
          "093821.171000",
          "093823.671000",
          "093826.671000",
          "093829.171000",
          "093831.671000",
          "093834.171000",
          "093836.671000",
          "093839.671000",
          "093842.171000",
          "093844.671000",
          "093847.171000",
          "093849.671000",
          "093852.671000",
          "093855.171000",
          "093857.671000",
          "093900.171000",
          "093902.671000",
          "093905.656000",
          "093908.171000",
          "093910.671000",
          "093913.171000",
          "093915.671000",
          "093918.671000",
          "093921.171000",
          "093923.671000",
          "093926.171000",
          "093928.671000",
          "093931.671000",
          "093934.171000",
          "093936.671000",
          "093939.171000",
          "093941.671000",
          "093944.671000",
          "093947.171000",
          "093949.656000",
          "093952.171000",
          "093954.671000",
          "093957.671000",
          "094000.171000",
          "094002.671000",
          "094005.171000",
          "094007.671000",
          "094010.671000",
          "094013.171000",
          "094015.671000",
          "094018.171000",
          "094025.578000"
        ],
        "InstanceNumber": [
          1,
          2,
          3,
          4,
          5,
          6,
          7,
          8,
          9,
          10,
          11,
          12,
          13,
          14,
          15,
          16,
          17,
          18,
          19,
          20,
          21,
          22,
          23,
          24,
          25,
          26,
          27,
          28,
          29,
          30,
          31,
          32,
          33,
          34,
          35,
          36,
          37,
          38,
          39,
          40,
          41,
          42,
          43,
          44,
          45,
          46,
          47,
          48,
          49,
          50,
          51,
          52,
          53,
          54,
          55,
          56,
          57,
          58,
          59,
          60,
          61,
          62,
          63,
          64,
          65,
          66,
          67,
          68,
          69,
          70,
          71,
          72,
          73,
          74,
          75,
          76,
          77,
          78,
          79,
          80,
          81,
          82,
          83,
          84,
          85,
          86,
          87,
          88,
          89,
          90,
          91,
          92,
          93,
          94,
          95,
          96,
          97,
          98,
          99,
          100,
          101,
          102,
          103,
          104,
          105,
          106,
          107,
          108,
          109,
          110,
          111,
          112,
          113,
          114,
          115,
          116,
          117,
          118,
          119,
          120,
          121,
          122,
          123,
          124,
          125,
          126,
          127,
          128,
          129,
          130,
          131,
          132,
          133,
          134,
          135,
          136,
          137,
          138,
          139,
          140,
          141,
          142,
          143,
          144,
          145,
          146,
          147,
          148,
          149,
          150
        ],
        "WindowCenter": [
          878.0,
          877.0,
          875.0,
          875.0,
          876.0,
          875.0,
          873.0,
          875.0,
          879.0,
          877.0,
          875.0,
          877.0,
          878.0,
          877.0,
          877.0,
          877.0,
          878.0,
          878.0,
          877.0,
          876.0,
          877.0,
          878.0,
          879.0,
          877.0,
          876.0,
          874.0,
          877.0,
          877.0,
          877.0,
          877.0,
          877.0,
          877.0,
          877.0,
          878.0,
          877.0,
          876.0,
          878.0,
          877.0,
          876.0,
          878.0,
          876.0,
          875.0,
          875.0,
          878.0,
          876.0,
          876.0,
          876.0,
          875.0,
          877.0,
          877.0,
          877.0,
          877.0,
          878.0,
          879.0,
          878.0,
          875.0,
          875.0,
          877.0,
          876.0,
          876.0,
          875.0,
          875.0,
          876.0,
          875.0,
          875.0,
          875.0,
          875.0,
          878.0,
          879.0,
          877.0,
          876.0,
          876.0,
          877.0,
          877.0,
          878.0,
          878.0,
          878.0,
          878.0,
          876.0,
          877.0,
          879.0,
          878.0,
          876.0,
          876.0,
          875.0,
          877.0,
          875.0,
          875.0,
          876.0,
          879.0,
          879.0,
          876.0,
          879.0,
          878.0,
          876.0,
          877.0,
          879.0,
          877.0,
          877.0,
          879.0,
          879.0,
          878.0,
          878.0,
          879.0,
          877.0,
          878.0,
          878.0,
          880.0,
          875.0,
          876.0,
          876.0,
          879.0,
          877.0,
          878.0,
          879.0,
          878.0,
          877.0,
          877.0,
          877.0,
          877.0,
          878.0,
          878.0,
          877.0,
          878.0,
          876.0,
          876.0,
          876.0,
          875.0,
          875.0,
          878.0,
          876.0,
          876.0,
          877.0,
          877.0,
          878.0,
          878.0,
          876.0,
          877.0,
          878.0,
          877.0,
          877.0,
          876.0,
          878.0,
          875.0,
          879.0,
          876.0,
          876.0,
          877.0,
          876.0,
          876.0
        ],
        "WindowWidth": [
          1963.0,
          1958.0,
          1951.0,
          1952.0,
          1957.0,
          1953.0,
          1948.0,
          1953.0,
          1965.0,
          1959.0,
          1953.0,
          1959.0,
          1961.0,
          1961.0,
          1959.0,
          1960.0,
          1963.0,
          1963.0,
          1958.0,
          1956.0,
          1959.0,
          1962.0,
          1964.0,
          1960.0,
          1955.0,
          1952.0,
          1958.0,
          1959.0,
          1959.0,
          1959.0,
          1961.0,
          1960.0,
          1960.0,
          1963.0,
          1960.0,
          1958.0,
          1961.0,
          1959.0,
          1958.0,
          1963.0,
          1956.0,
          1952.0,
          1955.0,
          1962.0,
          1955.0,
          1955.0,
          1957.0,
          1954.0,
          1959.0,
          1959.0,
          1957.0,
          1960.0,
          1962.0,
          1966.0,
          1960.0,
          1952.0,
          1953.0,
          1959.0,
          1955.0,
          1956.0,
          1953.0,
          1952.0,
          1955.0,
          1953.0,
          1952.0,
          1952.0,
          1953.0,
          1961.0,
          1963.0,
          1958.0,
          1955.0,
          1958.0,
          1960.0,
          1961.0,
          1962.0,
          1964.0,
          1961.0,
          1962.0,
          1957.0,
          1959.0,
          1964.0,
          1961.0,
          1956.0,
          1957.0,
          1954.0,
          1958.0,
          1952.0,
          1953.0,
          1957.0,
          1965.0,
          1965.0,
          1957.0,
          1965.0,
          1960.0,
          1957.0,
          1959.0,
          1963.0,
          1959.0,
          1958.0,
          1965.0,
          1966.0,
          1962.0,
          1962.0,
          1964.0,
          1959.0,
          1962.0,
          1962.0,
          1968.0,
          1953.0,
          1956.0,
          1956.0,
          1965.0,
          1958.0,
          1961.0,
          1965.0,
          1960.0,
          1960.0,
          1959.0,
          1958.0,
          1959.0,
          1963.0,
          1962.0,
          1958.0,
          1961.0,
          1957.0,
          1956.0,
          1957.0,
          1955.0,
          1954.0,
          1961.0,
          1957.0,
          1956.0,
          1959.0,
          1961.0,
          1963.0,
          1961.0,
          1957.0,
          1960.0,
          1961.0,
          1959.0,
          1961.0,
          1958.0,
          1961.0,
          1955.0,
          1964.0,
          1956.0,
          1958.0,
          1961.0,
          1956.0,
          1958.0
        ]
      },
      "slices": {}
    }
  },
  "dummy_trs": 0,
  "dvars_nstd": 81.47474803543628,
  "dvars_std": 1.0527401467114093,
  "dvars_vstd": 1.0212392682550337,
  "efc": 0.5990893600560646,
  "fber": 174.13201904296875,
  "fd_mean": 0.10412120193018426,
  "fd_num": 9,
  "fd_perc": 6.0,
  "fwhm_avg": 3.172336809324349,
  "fwhm_x": 2.9453484141525252,
  "fwhm_y": 3.045234817526499,
  "fwhm_z": 3.526427196294022,
  "gcor": 0.00217375,
  "gsr_x": 0.055592119693756104,
  "gsr_y": 0.007210658863186836,
  "provenance": {
    "md5sum": "e80beb2ba4c1c6f8bbc960a902caa70e",
    "settings": {
      "fd_thres": 0.2,
      "testing": false
    },
    "software": "mriqc",
    "version": "22.0.0rc1",
    "webapi_port": null,
    "webapi_url": "https://mriqc.nimh.nih.gov/api/v1"
  },
  "size_t": 150,
  "size_x": 188,
  "size_y": 188,
  "size_z": 46,
  "snr": 1.8526049940589282,
  "spacing_tr": 2.5999999046325684,
  "spacing_x": 1.0957447290420532,
  "spacing_y": 1.0957447290420532,
  "spacing_z": 1.100000023841858,
  "summary_bg_k": 38.541716315642624,
  "summary_bg_mad": 35.68129188385385,
  "summary_bg_mean": 110.6052474975586,
  "summary_bg_median": 61.37333297729492,
  "summary_bg_n": 993329.0,
  "summary_bg_p05": 30.48000144958496,
  "summary_bg_p95": 328.6306701660155,
