{
  "aor": 0.0006453333333333333,
  "aqi": 0.013609492666666665,
  "bids_meta": {
    "AcquisitionMatrixPE": 188,
    "AcquisitionNumber": 1,
    "AcquisitionTime": "09:09:3.307500",
    "BandwidthPerPixelPhaseEncode": 19.46,
    "BaseResolution": 188,
    "CogAtlasID": "TODO",
    "ConversionSoftware": "dcm2niix",
    "ConversionSoftwareVersion": "v1.0.20180606 GCC4.8.5",
    "DelayTime": 1.2,
    "DerivedVendorReportedEchoSpacing": 0.000820013,
    "DeviceSerialNumber": "18930",
    "DwellTime": 1.9e-06,
    "EchoTime": 0.02,
    "EffectiveEchoSpacing": 0.000273338,
    "FlipAngle": 80,
    "ImageComments": "Unaliased_MB2_PE2",
    "ImageOrientationPatientDICOM": [
      0.999755,
      0.015956,
      0.0153145,
      0.0114333,
      0.219867,
      -0.975463
    ],
    "ImageType": [
      "ORIGINAL",
      "PRIMARY",
      "M",
      "MB",
      "ND",
      "MOSAIC"
    ],
    "InPlanePhaseEncodingDirectionDICOM": "COL",
    "InstitutionAddress": "Oxfordlaan_55_Maastricht_12C0A2_Limburg_NL_6229_EV",
    "InstitutionName": "Scannexus",
    "InstitutionalDepartmentName": "MRI_7T",
    "MRAcquisitionType": "2D",
    "MagneticFieldStrength": 6.98,
    "Manufacturer": "Siemens",
    "ManufacturersModelName": "Investigational_Device_7T",
    "Modality": "MR",
    "MultibandAccelerationFactor": 2,
    "ParallelReductionFactorInPlane": 3,
    "PartialFourier": 0.75,
    "PatientPosition": "HFS",
    "PercentPhaseFOV": 100,
    "PhaseEncodingDirection": "j",
    "PhaseEncodingSteps": 141,
    "PhaseResolution": 1,
    "PixelBandwidth": 1400,
    "ProcedureStepDescription": "FeDem_Faruk",
    "ProtocolName": "cmrr_mbep2d_bold_AP_run3",
    "PulseSequenceDetails": "%CustomerSeq%_cmrr_mbep2d_bold",
    "ReceiveCoilName": "32Ch_Head_7T",
    "ReconMatrixPE": 188,
    "RepetitionTime": 2.6,
    "SAR": 0.0528092,
    "ScanOptions": "PFP_FS",
    "ScanningSequence": "EP",
    "SequenceName": "epfid2d1_188",
    "SequenceVariant": "SK_SS",
    "SeriesDescription": "cmrr_mbep2d_bold_AP_run3",
    "SeriesNumber": 12,
    "ShimSetting": [
      110,
      -39,
      352,
      551,
      168,
      265,
      -75,
      84
    ],
    "SliceThickness": 1.1,
    "SliceTiming": [
      0,
      0.7325,
      0.06,
      0.795,
      0.1225,
      0.855,
      0.1825,
      0.915,
      0.245,
      0.9775,
      0.305,
      1.0375,
      0.3675,
      1.1,
      0.4275,
      1.16,
      0.4875,
      1.2225,
      0.55,
      1.2825,
      0.61,
      1.345,
      0.6725,
      0,
      0.7325,
      0.06,
      0.795,
      0.1225,
      0.855,
      0.1825,
      0.915,
      0.245,
      0.9775,
      0.305,
      1.0375,
      0.3675,
      1.1,
      0.4275,
      1.16,
      0.4875,
      1.2225,
      0.55,
      1.2825,
      0.61,
      1.345,
      0.6725
    ],
    "SoftwareVersions": "syngo_MR_B17",
    "SpacingBetweenSlices": 1.1,
    "StationName": "MRC18930",
    "TaskName": "auditory",
    "TotalReadoutTime": 0.0511141,
    "TxRefAmp": 185,
    "dataset": "ds001942",
    "dcmmeta_affine": [
      [
        -1.095476746559143,
        0.012527965009212494,
        0.020824825391173363,
        103.05306243896484
      ],
      [
        -0.017483726143836975,
        0.24091863632202148,
        -1.072939157485962,
        21.79283905029297
      ],
      [
        0.016780756413936615,
        1.0688581466674805,
        0.24159440398216248,
        -118.52979278564453
      ],
      [
        0.0,
        0.0,
        0.0,
        1.0
      ]
    ],
    "dcmmeta_reorient_transform": [
      [
        0.0,
        -1.0,
        0.0,
        187.0
      ],
      [
        1.0,
        0.0,
        0.0,
        0.0
      ],
      [
        0.0,
        0.0,
        1.0,
        0.0
      ],
      [
        0.0,
        0.0,
        0.0,
        1.0
      ]
    ],
    "dcmmeta_shape": [
      188,
      188,
      46,
      150
    ],
    "dcmmeta_slice_dim": 2,
    "dcmmeta_version": 0.6,
    "global": {
      "const": {
        "AcquisitionMatrix": [
          188,
          0,
          0,
          188
        ],
        "AngioFlag": "N",
        "BitsAllocated": 16,
        "BitsStored": 12,
        "Columns": 1316,
        "EchoNumbers": 1,
        "EchoTime": 20.0,
        "EchoTrainLength": 1,
        "FlipAngle": 80.0,
        "HighBit": 11,
        "ImageOrientationPatient": [
          0.99975540619208,
          0.01595602073933,
          0.01531447654586,
          0.01143328775089,
          0.21986748273264,
          -0.9754627465813
        ],
        "ImagePositionPatient": [
          -730.31042959187,
          -212.58355542209,
          674.71833962045
        ],
        "ImageType": [
          "ORIGINAL",
          "PRIMARY",
          "M",
          "MB",
          "ND",
          "MOSAIC"
        ],
        "ImagedNucleus": "1H",
        "ImagingFrequency": 297.205726,
        "InPlanePhaseEncodingDirection": "COL",
        "LargestImagePixelValue": 4095,
        "MRAcquisitionType": "2D",
        "MagneticFieldStrength": 6.98,
        "Manufacturer": "SIEMENS",
        "ManufacturerModelName": "Investigational_Device_7T",
        "Modality": "MR",
        "NumberOfAverages": 1.0,
        "NumberOfPhaseEncodingSteps": 141,
        "PercentPhaseFieldOfView": 100.0,
        "PercentSampling": 100.0,
        "PerformedProcedureStepStartTime": "080807.562000",
        "PhotometricInterpretation": "MONOCHROME2",
        "PixelBandwidth": 1400.0,
        "PixelRepresentation": 0,
        "PixelSpacing": [
          1.0957447290421,
          1.0957447290421
        ],
        "ProtocolName": "cmrr_mbep2d_bold_AP_run3",
        "RepetitionTime": 2600.0,
        "Rows": 1316,
        "SAR": 0.0528091510178,
        "SamplesPerPixel": 1,
        "ScanOptions": [
          "PFP",
          "FS"
        ],
        "ScanningSequence": "EP",
        "SequenceName": "epfid2d1_188",
        "SequenceVariant": [
          "SK",
          "SS"
        ],
        "SeriesDescription": "cmrr_mbep2d_bold_AP_run3",
        "SeriesNumber": 12,
        "SeriesTime": "090913.062000",
        "SliceLocation": -45.338603166727,
        "SliceThickness": 1.1000000238419,
        "SmallestImagePixelValue": 0,
        "SoftwareVersions": "syngo MR B17",
        "SpacingBetweenSlices": 1.0999999744075,
        "SpecificCharacterSet": "ISO_IR 100",
        "StudyID": "1",
        "StudyTime": "080807.515000",
        "TransmitCoilName": "32Ch_Head_7T",
        "VariableFlipAngleFlag": "N",
        "WindowCenterWidthExplanation": "Algo1",
        "dBdt": 0.0
      },
      "slices": {}
    },
    "modality": "bold",
    "run_id": 3,
    "session_id": "SES02",
    "subject_id": "S02",
    "task_id": "auditory",
    "time": {
      "samples": {
        "AcquisitionNumber": [
          1,
          2,
          3,
          4,
          5,
          6,
          7,
          8,
          9,
          10,
          11,
          12,
          13,
          14,
          15,
          16,
          17,
          18,
          19,
          20,
          21,
          22,
          23,
          24,
          25,
          26,
          27,
          28,
          29,
          30,
          31,
          32,
          33,
          34,
          35,
          36,
          37,
          38,
          39,
          40,
          41,
          42,
          43,
          44,
          45,
          46,
          47,
          48,
          49,
          50,
          51,
          52,
          53,
          54,
          55,
          56,
          57,
          58,
          59,
          60,
          61,
          62,
          63,
          64,
          65,
          66,
          67,
          68,
          69,
          70,
          71,
          72,
          73,
          74,
          75,
          76,
          77,
          78,
          79,
          80,
          81,
          82,
          83,
          84,
          85,
          86,
          87,
          88,
          89,
          90,
          91,
          92,
          93,
          94,
          95,
          96,
          97,
          98,
          99,
          100,
          101,
          102,
          103,
          104,
          105,
          106,
          107,
          108,
          109,
          110,
          111,
          112,
          113,
          114,
          115,
          116,
          117,
          118,
          119,
          120,
          121,
          122,
          123,
          124,
          125,
          126,
          127,
          128,
          129,
          130,
          131,
          132,
          133,
          134,
          135,
          136,
          137,
          138,
          139,
          140,
          141,
          142,
          143,
          144,
          145,
          146,
          147,
          148,
          149,
          150
        ],
        "AcquisitionTime": [
          "090903.307500",
          "090905.917500",
          "090908.527500",
          "090911.137500",
          "090913.750000",
          "090916.360000",
          "090918.970000",
          "090921.580000",
          "090924.190000",
          "090926.800000",
          "090929.412500",
          "090932.022500",
          "090934.632500",
          "090937.242500",
          "090939.852500",
          "090942.465000",
          "090945.075000",
          "090947.685000",
          "090950.295000",
          "090952.905000",
          "090955.515000",
          "090958.127500",
          "091000.737500",
          "091003.347500",
          "091005.957500",
          "091008.567500",
          "091011.177500",
          "091013.790000",
          "091016.400000",
          "091019.010000",
          "091021.620000",
          "091024.230000",
          "091026.842500",
          "091029.452500",
          "091032.062500",
          "091034.672500",
          "091037.282500",
          "091039.892500",
          "091042.505000",
          "091045.115000",
          "091047.725000",
          "091050.335000",
          "091052.945000",
          "091055.555000",
          "091058.167500",
          "091100.777500",
          "091103.387500",
          "091105.997500",
          "091108.607500",
          "091111.220000",
          "091113.830000",
          "091116.440000",
          "091119.050000",
          "091121.660000",
          "091124.270000",
          "091126.882500",
          "091129.492500",
          "091132.102500",
          "091134.712500",
          "091137.322500",
          "091139.932500",
          "091142.545000",
          "091145.155000",
          "091147.765000",
          "091150.375000",
          "091152.985000",
          "091155.597500",
          "091158.207500",
          "091200.817500",
          "091203.427500",
          "091206.037500",
          "091208.647500",
          "091211.260000",
          "091213.870000",
          "091216.480000",
          "091219.090000",
          "091221.700000",
          "091224.310000",
          "091226.922500",
          "091229.532500",
          "091232.142500",
          "091234.752500",
          "091237.362500",
          "091239.975000",
          "091242.585000",
          "091245.195000",
          "091247.805000",
          "091250.415000",
          "091253.025000",
          "091255.637500",
          "091258.247500",
          "091300.857500",
          "091303.467500",
          "091306.077500",
          "091308.687500",
          "091311.300000",
          "091313.910000",
          "091316.520000",
          "091319.130000",
          "091321.740000",
          "091324.352500",
          "091326.962500",
          "091329.572500",
          "091332.182500",
          "091334.792500",
          "091337.402500",
          "091340.015000",
          "091342.625000",
          "091345.235000",
          "091347.845000",
          "091350.455000",
          "091353.065000",
          "091355.677500",
          "091358.287500",
          "091400.897500",
          "091403.507500",
          "091406.117500",
          "091408.730000",
          "091411.340000",
          "091413.950000",
          "091416.560000",
          "091419.170000",
          "091421.780000",
          "091424.392500",
          "091427.002500",
          "091429.612500",
          "091432.222500",
          "091434.832500",
          "091437.442500",
          "091440.055000",
          "091442.665000",
          "091445.275000",
          "091447.885000",
          "091450.495000",
          "091453.107500",
          "091455.717500",
          "091458.327500",
          "091500.937500",
          "091503.547500",
          "091506.157500",
          "091508.770000",
          "091511.380000",
          "091513.990000",
          "091516.600000",
          "091519.210000",
          "091521.820000",
          "091524.432500",
          "091527.042500",
          "091529.652500",
          "091532.262500"
        ],
        "ContentTime": [
          "090913.062000",
          "090913.562000",
          "090914.062000",
          "090916.062000",
          "090918.562000",
          "090921.062000",
          "090924.062000",
          "090926.562000",
          "090929.062000",
          "090931.562000",
          "090934.062000",
          "090937.062000",
          "090939.562000",
          "090942.062000",
          "090944.562000",
          "090947.062000",
          "090950.062000",
          "090952.562000",
          "090955.062000",
          "090957.562000",
          "091000.046000",
          "091003.062000",
          "091005.562000",
          "091008.062000",
          "091010.562000",
          "091013.062000",
          "091016.062000",
          "091018.562000",
          "091021.062000",
          "091023.562000",
          "091026.062000",
          "091029.062000",
          "091031.562000",
          "091034.062000",
          "091036.562000",
          "091039.062000",
          "091042.062000",
          "091044.562000",
          "091047.062000",
          "091049.562000",
          "091052.062000",
          "091055.062000",
          "091057.546000",
          "091100.062000",
          "091102.562000",
          "091105.062000",
          "091108.062000",
          "091110.562000",
          "091113.062000",
          "091115.562000",
          "091118.062000",
          "091121.062000",
          "091123.562000",
          "091126.062000",
          "091128.562000",
          "091131.062000",
          "091134.062000",
          "091136.562000",
          "091139.062000",
          "091141.562000",
          "091144.062000",
          "091147.062000",
          "091149.562000",
          "091152.062000",
          "091154.562000",
          "091157.062000",
          "091200.062000",
          "091202.562000",
          "091205.062000",
          "091207.562000",
          "091210.062000",
          "091213.062000",
          "091215.562000",
          "091218.062000",
          "091220.562000",
          "091223.062000",
          "091226.062000",
          "091228.562000",
          "091231.062000",
          "091233.562000",
          "091236.062000",
          "091239.062000",
          "091241.562000",
          "091244.062000",
          "091246.562000",
          "091249.062000",
          "091252.046000",
          "091254.562000",
          "091257.062000",
          "091259.562000",
          "091302.062000",
          "091305.062000",
          "091307.562000",
          "091310.062000",
          "091312.562000",
          "091315.062000",
          "091318.062000",
          "091320.562000",
          "091323.062000",
          "091325.562000",
          "091328.062000",
          "091331.062000",
          "091333.562000",
          "091336.062000",
          "091338.562000",
          "091341.062000",
          "091344.062000",
          "091346.562000",
          "091349.046000",
          "091351.562000",
          "091354.062000",
          "091357.062000",
          "091359.562000",
          "091402.062000",
          "091404.562000",
          "091407.062000",
          "091410.062000",
          "091412.562000",
          "091415.062000",
          "091417.562000",
          "091420.062000",
          "091423.062000",
          "091425.562000",
          "091428.062000",
          "091430.562000",
          "091433.062000",
          "091436.062000",
          "091438.562000",
          "091441.062000",
          "091443.562000",
          "091446.062000",
          "091449.062000",
          "091451.562000",
          "091454.062000",
          "091456.562000",
          "091459.062000",
          "091502.062000",
          "091504.562000",
          "091507.062000",
          "091509.562000",
          "091512.062000",
          "091515.062000",
          "091517.562000",
          "091520.062000",
          "091522.562000",
          "091525.062000",
          "091528.062000",
          "091530.562000",
          "091533.062000",
          "091540.390000"
        ],
        "InstanceCreationTime": [
          "090913.062000",
          "090913.562000",
          "090914.062000",
          "090916.062000",
          "090918.562000",
          "090921.062000",
          "090924.062000",
          "090926.562000",
          "090929.062000",
          "090931.562000",
          "090934.062000",
          "090937.062000",
          "090939.562000",
          "090942.062000",
          "090944.562000",
          "090947.062000",
          "090950.062000",
          "090952.562000",
          "090955.062000",
          "090957.562000",
          "091000.046000",
          "091003.062000",
          "091005.562000",
          "091008.062000",
          "091010.562000",
          "091013.062000",
          "091016.062000",
          "091018.562000",
          "091021.062000",
          "091023.562000",
          "091026.062000",
          "091029.062000",
          "091031.562000",
          "091034.062000",
          "091036.562000",
          "091039.062000",
          "091042.062000",
          "091044.562000",
          "091047.062000",
          "091049.562000",
          "091052.062000",
          "091055.062000",
          "091057.546000",
          "091100.062000",
          "091102.562000",
          "091105.062000",
          "091108.062000",
          "091110.562000",
          "091113.062000",
          "091115.562000",
          "091118.062000",
          "091121.062000",
          "091123.562000",
          "091126.062000",
          "091128.562000",
          "091131.062000",
          "091134.062000",
          "091136.562000",
          "091139.062000",
          "091141.562000",
          "091144.062000",
          "091147.062000",
          "091149.562000",
          "091152.062000",
          "091154.562000",
          "091157.062000",
          "091200.062000",
          "091202.562000",
          "091205.062000",
          "091207.562000",
          "091210.062000",
          "091213.062000",
          "091215.562000",
          "091218.062000",
          "091220.562000",
          "091223.062000",
          "091226.062000",
          "091228.562000",
          "091231.062000",
          "091233.562000",
          "091236.062000",
          "091239.062000",
          "091241.562000",
          "091244.062000",
          "091246.562000",
          "091249.062000",
          "091252.046000",
          "091254.562000",
          "091257.062000",
          "091259.562000",
          "091302.062000",
          "091305.062000",
          "091307.562000",
          "091310.062000",
          "091312.562000",
          "091315.062000",
          "091318.062000",
          "091320.562000",
          "091323.062000",
          "091325.562000",
          "091328.062000",
          "091331.062000",
          "091333.562000",
          "091336.062000",
          "091338.562000",
          "091341.062000",
          "091344.062000",
          "091346.562000",
          "091349.046000",
          "091351.562000",
          "091354.062000",
          "091357.062000",
          "091359.562000",
          "091402.062000",
          "091404.562000",
          "091407.062000",
          "091410.062000",
          "091412.562000",
          "091415.062000",
          "091417.562000",
          "091420.062000",
          "091423.062000",
          "091425.562000",
          "091428.062000",
          "091430.562000",
          "091433.062000",
          "091436.062000",
          "091438.562000",
          "091441.062000",
          "091443.562000",
          "091446.062000",
          "091449.062000",
          "091451.562000",
          "091454.062000",
          "091456.562000",
          "091459.062000",
          "091502.062000",
          "091504.562000",
          "091507.062000",
          "091509.562000",
          "091512.062000",
          "091515.062000",
          "091517.562000",
          "091520.062000",
          "091522.562000",
          "091525.062000",
          "091528.062000",
          "091530.562000",
          "091533.062000",
          "091540.390000"
        ],
        "InstanceNumber": [
          1,
          2,
          3,
          4,
          5,
          6,
          7,
          8,
          9,
          10,
          11,
          12,
          13,
          14,
          15,
          16,
          17,
          18,
          19,
          20,
          21,
          22,
          23,
          24,
          25,
          26,
          27,
          28,
          29,
          30,
          31,
          32,
          33,
          34,
          35,
          36,
          37,
          38,
          39,
          40,
          41,
          42,
          43,
          44,
          45,
          46,
          47,
          48,
          49,
          50,
          51,
          52,
          53,
          54,
          55,
          56,
          57,
          58,
          59,
          60,
          61,
          62,
          63,
          64,
          65,
          66,
          67,
          68,
          69,
          70,
          71,
          72,
          73,
          74,
          75,
          76,
          77,
          78,
          79,
          80,
          81,
          82,
          83,
          84,
          85,
          86,
          87,
          88,
          89,
          90,
          91,
          92,
          93,
          94,
          95,
          96,
          97,
          98,
          99,
          100,
          101,
          102,
          103,
          104,
          105,
          106,
          107,
          108,
          109,
          110,
          111,
          112,
          113,
          114,
          115,
          116,
          117,
          118,
          119,
          120,
          121,
          122,
          123,
          124,
          125,
          126,
          127,
          128,
          129,
          130,
          131,
          132,
          133,
          134,
          135,
          136,
          137,
          138,
          139,
          140,
          141,
          142,
          143,
          144,
          145,
          146,
          147,
          148,
          149,
          150
        ],
        "WindowCenter": [
          879.0,
          879.0,
          876.0,
          878.0,
          876.0,
          876.0,
          876.0,
          877.0,
          877.0,
          876.0,
          877.0,
          877.0,
          877.0,
          877.0,
          879.0,
          877.0,
          875.0,
          876.0,
          877.0,
          877.0,
          878.0,
          877.0,
          876.0,
          876.0,
          876.0,
          877.0,
          878.0,
          879.0,
          877.0,
          876.0,
          877.0,
          879.0,
          878.0,
          878.0,
          880.0,
          878.0,
          878.0,
          877.0,
          877.0,
          878.0,
          878.0,
          877.0,
          879.0,
          881.0,
          879.0,
          877.0,
          879.0,
          880.0,
          878.0,
          879.0,
          879.0,
          879.0,
          878.0,
          878.0,
          880.0,
          879.0,
          877.0,
          881.0,
          881.0,
          878.0,
          877.0,
          878.0,
          879.0,
          880.0,
          879.0,
          880.0,
          879.0,
          879.0,
          878.0,
          880.0,
          879.0,
          877.0,
          878.0,
          880.0,
          881.0,
          880.0,
          877.0,
          878.0,
          879.0,
          879.0,
          879.0,
          878.0,
          880.0,
          879.0,
          879.0,
          879.0,
          880.0,
          879.0,
          880.0,
          880.0,
          880.0,
          879.0,
          879.0,
          880.0,
          880.0,
          880.0,
          878.0,
          879.0,
          880.0,
          879.0,
          879.0,
          879.0,
          882.0,
          879.0,
          878.0,
          878.0,
          880.0,
          879.0,
          879.0,
          877.0,
          878.0,
          879.0,
          879.0,
          881.0,
          879.0,
          879.0,
          880.0,
          878.0,
          877.0,
          878.0,
          879.0,
          878.0,
          878.0,
          879.0,
          876.0,
          878.0,
          878.0,
          877.0,
          875.0,
          875.0,
          878.0,
          877.0,
          877.0,
          878.0,
          878.0,
          879.0,
          877.0,
          878.0,
          879.0,
          879.0,
          880.0,
          879.0,
          877.0,
          878.0,
          879.0,
          878.0,
          878.0,
          880.0,
          878.0,
          877.0
        ],
        "WindowWidth": [
          1967.0,
          1965.0,
          1958.0,
          1962.0,
          1958.0,
          1959.0,
          1958.0,
          1960.0,
          1959.0,
          1957.0,
          1961.0,
          1960.0,
          1960.0,
          1961.0,
          1966.0,
          1961.0,
          1953.0,
          1957.0,
          1961.0,
          1961.0,
          1963.0,
          1960.0,
          1958.0,
          1958.0,
          1957.0,
          1959.0,
          1965.0,
          1965.0,
          1960.0,
          1957.0,
          1961.0,
          1965.0,
          1962.0,
          1964.0,
          1969.0,
          1964.0,
          1963.0,
          1961.0,
          1960.0,
          1963.0,
          1962.0,
          1960.0,
          1968.0,
          1973.0,
          1966.0,
          1961.0,
          1966.0,
          1968.0,
          1963.0,
          1966.0,
          1967.0,
          1967.0,
          1963.0,
          1965.0,
          1967.0,
          1966.0,
          1961.0,
          1972.0,
          1972.0,
          1962.0,
          1960.0,
          1963.0,
          1967.0,
          1969.0,
          1965.0,
          1970.0,
          1966.0,
          1965.0,
          1963.0,
          1969.0,
          1965.0,
          1960.0,
          1964.0,
          1968.0,
          1970.0,
          1968.0,
          1961.0,
          1961.0,
          1966.0,
          1966.0,
          1964.0,
          1963.0,
          1969.0,
          1965.0,
          1965.0,
          1967.0,
          1969.0,
          1967.0,
          1969.0,
          1969.0,
          1968.0,
          1966.0,
          1967.0,
          1970.0,
          1968.0,
          1968.0,
          1963.0,
          1967.0,
          1969.0,
          1966.0,
          1966.0,
          1966.0,
          1975.0,
          1964.0,
          1962.0,
          1964.0,
          1969.0,
          1966.0,
          1965.0,
          1961.0,
          1963.0,
          1968.0,
          1968.0,
          1972.0,
          1965.0,
          1965.0,
          1970.0,
          1963.0,
          1961.0,
          1963.0,
          1966.0,
          1963.0,
          1964.0,
          1964.0,
          1958.0,
          1964.0,
          1964.0,
          1961.0,
          1955.0,
          1955.0,
          1962.0,
          1959.0,
          1959.0,
          1963.0,
          1963.0,
          1965.0,
          1958.0,
          1963.0,
          1965.0,
          1965.0,
          1969.0,
          1966.0,
          1960.0,
          1963.0,
          1966.0,
          1963.0,
          1963.0,
          1969.0,
          1962.0,
          1960.0
        ]
      },
      "slices": {}
    }
  },
  "dummy_trs": 0,
  "dvars_nstd": 82.31394610342286,
  "dvars_std": 1.0482458396644294,
  "dvars_vstd": 1.0161428148322147,
  "efc": 0.5980710565276357,
  "fber": 175.33688354492188,
  "fd_mean": 0.12475635821097361,
  "fd_num": 25,
  "fd_perc": 16.666666666666668,
  "fwhm_avg": 3.186355761456978,
  "fwhm_x": 2.9677806461756617,
  "fwhm_y": 3.049250351330478,
  "fwhm_z": 3.542036286864795,
  "gcor": 0.00224935,
  "gsr_x": 0.05486423894762993,
  "gsr_y": 0.007872965186834335,
  "provenance": {
    "md5sum": "f4388236b2bd73b29705b4a92480c6d3",
    "settings": {
      "fd_thres": 0.2,
      "testing": false
    },
    "software": "mriqc",
    "version": "22.0.0rc1",
    "webapi_port": null,
    "webapi_url": "https://mriqc.nimh.nih.gov/api/v1"
  },
  "size_t": 150,
  "size_x": 188,
  "size_y": 188,
  "size_z": 46,
  "snr": 1.8416415070872143,
  "spacing_tr": 2.5999999046325684,
  "spacing_x": 1.0957447290420532,
  "spacing_y": 1.0957447290420532,
  "spacing_z": 1.100000023841858,
  "summary_bg_k": 40.75354407161398,
  "summary_bg_mad": 35.612105967186,
  "summary_bg_mean": 110.16250610351562,
  "summary_bg_median": 61.233333587646484,
  "summary_bg_n": 993176.0,
  "summary_bg_p05": 30.30666732788086,
