{
  "aor": 0.0006136,
  "aqi": 0.012417619999999999,
  "bids_meta": {
    "AcquisitionMatrixPE": 188,
    "AcquisitionNumber": 1,
    "AcquisitionTime": "10:18:51.207500",
    "BandwidthPerPixelPhaseEncode": 19.46,
    "BaseResolution": 188,
    "CogAtlasID": "TODO",
    "ConversionSoftware": "dcm2niix",
    "ConversionSoftwareVersion": "v1.0.20180606 GCC4.8.5",
    "DelayTime": 1.2,
    "DerivedVendorReportedEchoSpacing": 0.000820013,
    "DeviceSerialNumber": "18930",
    "DwellTime": 1.9e-06,
    "EchoTime": 0.02,
    "EffectiveEchoSpacing": 0.000273338,
    "FlipAngle": 80,
    "ImageComments": "Unaliased_MB2_PE2",
    "ImageOrientationPatientDICOM": [
      0.999755,
      0.015956,
      0.0153145,
      0.0114333,
      0.219867,
      -0.975463
    ],
    "ImageType": [
      "ORIGINAL",
      "PRIMARY",
      "M",
      "MB",
      "ND",
      "MOSAIC"
    ],
    "InPlanePhaseEncodingDirectionDICOM": "COL",
    "InstitutionAddress": "Oxfordlaan_55_Maastricht_12C0A2_Limburg_NL_6229_EV",
    "InstitutionName": "Scannexus",
    "InstitutionalDepartmentName": "MRI_7T",
    "MRAcquisitionType": "2D",
    "MagneticFieldStrength": 6.98,
    "Manufacturer": "Siemens",
    "ManufacturersModelName": "Investigational_Device_7T",
    "Modality": "MR",
    "MultibandAccelerationFactor": 2,
    "ParallelReductionFactorInPlane": 3,
    "PartialFourier": 0.75,
    "PatientPosition": "HFS",
    "PercentPhaseFOV": 100,
    "PhaseEncodingDirection": "j",
    "PhaseEncodingSteps": 141,
    "PhaseResolution": 1,
    "PixelBandwidth": 1400,
    "ProcedureStepDescription": "FeDem_Faruk",
    "ProtocolName": "cmrr_mbep2d_bold_AP_run11",
    "PulseSequenceDetails": "%CustomerSeq%_cmrr_mbep2d_bold",
    "ReceiveCoilName": "32Ch_Head_7T",
    "ReconMatrixPE": 188,
    "RepetitionTime": 2.6,
    "SAR": 0.0526754,
    "ScanOptions": "PFP_FS",
    "ScanningSequence": "EP",
    "SequenceName": "epfid2d1_188",
    "SequenceVariant": "SK_SS",
    "SeriesDescription": "cmrr_mbep2d_bold_AP_run11",
    "SeriesNumber": 22,
    "ShimSetting": [
      110,
      -39,
      352,
      551,
      168,
      265,
      -75,
      84
    ],
    "SliceThickness": 1.1,
    "SliceTiming": [
      0,
      0.7325,
      0.06,
      0.7925,
      0.1225,
      0.855,
      0.1825,
      0.915,
      0.245,
      0.9775,
      0.305,
      1.0375,
      0.365,
      1.1,
      0.4275,
      1.16,
      0.4875,
      1.2225,
      0.55,
      1.2825,
      0.61,
      1.3425,
      0.6725,
      0,
      0.7325,
      0.06,
      0.7925,
      0.1225,
      0.855,
      0.1825,
      0.915,
      0.245,
      0.9775,
      0.305,
      1.0375,
      0.365,
      1.1,
      0.4275,
      1.16,
      0.4875,
      1.2225,
      0.55,
      1.2825,
      0.61,
      1.3425,
      0.6725
    ],
    "SoftwareVersions": "syngo_MR_B17",
    "SpacingBetweenSlices": 1.1,
    "StationName": "MRC18930",
    "TaskName": "auditory",
    "TotalReadoutTime": 0.0511141,
    "TxRefAmp": 185,
    "dataset": "ds001942",
    "dcmmeta_affine": [
      [
        -1.095476746559143,
        0.012527965009212494,
        0.020824825391173363,
        103.05306243896484
      ],
      [
        -0.017483726143836975,
        0.24091863632202148,
        -1.072939157485962,
        21.79283905029297
      ],
      [
        0.016780756413936615,
        1.0688581466674805,
        0.24159440398216248,
        -118.52979278564453
      ],
      [
        0.0,
        0.0,
        0.0,
        1.0
      ]
    ],
    "dcmmeta_reorient_transform": [
      [
        0.0,
        -1.0,
        0.0,
        187.0
      ],
      [
        1.0,
        0.0,
        0.0,
        0.0
      ],
      [
        0.0,
        0.0,
        1.0,
        0.0
      ],
      [
        0.0,
        0.0,
        0.0,
        1.0
      ]
    ],
    "dcmmeta_shape": [
      188,
      188,
      46,
      150
    ],
    "dcmmeta_slice_dim": 2,
    "dcmmeta_version": 0.6,
    "global": {
      "const": {
        "AcquisitionMatrix": [
          188,
          0,
          0,
          188
        ],
        "AngioFlag": "N",
        "BitsAllocated": 16,
        "BitsStored": 12,
        "Columns": 1316,
        "EchoNumbers": 1,
        "EchoTime": 20.0,
        "EchoTrainLength": 1,
        "FlipAngle": 80.0,
        "HighBit": 11,
        "ImageOrientationPatient": [
          0.99975540619208,
          0.01595602073933,
          0.01531447654586,
          0.01143328775089,
          0.21986748273264,
          -0.9754627465813
        ],
        "ImagePositionPatient": [
          -730.31042959187,
          -212.58355542209,
          674.71833962045
        ],
        "ImageType": [
          "ORIGINAL",
          "PRIMARY",
          "M",
          "MB",
          "ND",
          "MOSAIC"
        ],
        "ImagedNucleus": "1H",
        "ImagingFrequency": 297.205754,
        "InPlanePhaseEncodingDirection": "COL",
        "LargestImagePixelValue": 4095,
        "MRAcquisitionType": "2D",
        "MagneticFieldStrength": 6.98,
        "Manufacturer": "SIEMENS",
        "ManufacturerModelName": "Investigational_Device_7T",
        "Modality": "MR",
        "NumberOfAverages": 1.0,
        "NumberOfPhaseEncodingSteps": 141,
        "PercentPhaseFieldOfView": 100.0,
        "PercentSampling": 100.0,
        "PerformedProcedureStepStartTime": "080807.562000",
        "PhotometricInterpretation": "MONOCHROME2",
        "PixelBandwidth": 1400.0,
        "PixelRepresentation": 0,
        "PixelSpacing": [
          1.0957447290421,
          1.0957447290421
        ],
        "ProtocolName": "cmrr_mbep2d_bold_AP_run11",
        "RepetitionTime": 2600.0,
        "Rows": 1316,
        "SAR": 0.05267541635747,
        "SamplesPerPixel": 1,
        "ScanOptions": [
          "PFP",
          "FS"
        ],
        "ScanningSequence": "EP",
        "SequenceName": "epfid2d1_188",
        "SequenceVariant": [
          "SK",
          "SS"
        ],
        "SeriesDescription": "cmrr_mbep2d_bold_AP_run11",
        "SeriesNumber": 22,
        "SeriesTime": "101901.546000",
        "SliceLocation": -45.338603166727,
        "SliceThickness": 1.1000000238419,
        "SmallestImagePixelValue": 0,
        "SoftwareVersions": "syngo MR B17",
        "SpacingBetweenSlices": 1.0999999744075,
        "SpecificCharacterSet": "ISO_IR 100",
        "StudyID": "1",
        "StudyTime": "080807.515000",
        "TransmitCoilName": "32Ch_Head_7T",
        "VariableFlipAngleFlag": "N",
        "WindowCenterWidthExplanation": "Algo1",
        "dBdt": 0.0
      },
      "slices": {}
    },
    "modality": "bold",
    "run_id": 11,
    "session_id": "SES02",
    "subject_id": "S02",
    "task_id": "auditory",
    "time": {
      "samples": {
        "AcquisitionNumber": [
          1,
          2,
          3,
          4,
          5,
          6,
          7,
          8,
          9,
          10,
          11,
          12,
          13,
          14,
          15,
          16,
          17,
          18,
          19,
          20,
          21,
          22,
          23,
          24,
          25,
          26,
          27,
          28,
          29,
          30,
          31,
          32,
          33,
          34,
          35,
          36,
          37,
          38,
          39,
          40,
          41,
          42,
          43,
          44,
          45,
          46,
          47,
          48,
          49,
          50,
          51,
          52,
          53,
          54,
          55,
          56,
          57,
          58,
          59,
          60,
          61,
          62,
          63,
          64,
          65,
          66,
          67,
          68,
          69,
          70,
          71,
          72,
          73,
          74,
          75,
          76,
          77,
          78,
          79,
          80,
          81,
          82,
          83,
          84,
          85,
          86,
          87,
          88,
          89,
          90,
          91,
          92,
          93,
          94,
          95,
          96,
          97,
          98,
          99,
          100,
          101,
          102,
          103,
          104,
          105,
          106,
          107,
          108,
          109,
          110,
          111,
          112,
          113,
          114,
          115,
          116,
          117,
          118,
          119,
          120,
          121,
          122,
          123,
          124,
          125,
          126,
          127,
          128,
          129,
          130,
          131,
          132,
          133,
          134,
          135,
          136,
          137,
          138,
          139,
          140,
          141,
          142,
          143,
          144,
          145,
          146,
          147,
          148,
          149,
          150
        ],
        "AcquisitionTime": [
          "101851.207500",
          "101853.817500",
          "101856.427500",
          "101859.037500",
          "101901.647500",
          "101904.260000",
          "101906.870000",
          "101909.480000",
          "101912.090000",
          "101914.700000",
          "101917.312500",
          "101919.922500",
          "101922.532500",
          "101925.142500",
          "101927.752500",
          "101930.362500",
          "101932.975000",
          "101935.585000",
          "101938.195000",
          "101940.805000",
          "101943.415000",
          "101946.025000",
          "101948.637500",
          "101951.247500",
          "101953.857500",
          "101956.467500",
          "101959.077500",
          "102001.690000",
          "102004.300000",
          "102006.910000",
          "102009.520000",
          "102012.130000",
          "102014.740000",
          "102017.352500",
          "102019.962500",
          "102022.572500",
          "102025.182500",
          "102027.792500",
          "102030.402500",
          "102033.015000",
          "102035.625000",
          "102038.235000",
          "102040.845000",
          "102043.455000",
          "102046.067500",
          "102048.677500",
          "102051.287500",
          "102053.897500",
          "102056.507500",
          "102059.117500",
          "102101.730000",
          "102104.340000",
          "102106.950000",
          "102109.560000",
          "102112.170000",
          "102114.780000",
          "102117.392500",
          "102120.002500",
          "102122.612500",
          "102125.222500",
          "102127.832500",
          "102130.445000",
          "102133.055000",
          "102135.665000",
          "102138.275000",
          "102140.885000",
          "102143.495000",
          "102146.107500",
          "102148.717500",
          "102151.327500",
          "102153.937500",
          "102156.547500",
          "102159.157500",
          "102201.770000",
          "102204.380000",
          "102206.990000",
          "102209.600000",
          "102212.210000",
          "102214.822500",
          "102217.432500",
          "102220.042500",
          "102222.652500",
          "102225.262500",
          "102227.872500",
          "102230.485000",
          "102233.095000",
          "102235.705000",
          "102238.315000",
          "102240.925000",
          "102243.535000",
          "102246.147500",
          "102248.757500",
          "102251.367500",
          "102253.977500",
          "102256.587500",
          "102259.200000",
          "102301.810000",
          "102304.420000",
          "102307.030000",
          "102309.640000",
          "102312.250000",
          "102314.862500",
          "102317.472500",
          "102320.082500",
          "102322.692500",
          "102325.302500",
          "102327.912500",
          "102330.525000",
          "102333.135000",
          "102335.745000",
          "102338.355000",
          "102340.965000",
          "102343.577500",
          "102346.187500",
          "102348.797500",
          "102351.407500",
          "102354.017500",
          "102356.627500",
          "102359.240000",
          "102401.850000",
          "102404.460000",
          "102407.070000",
          "102409.680000",
          "102412.290000",
          "102414.902500",
          "102417.512500",
          "102420.122500",
          "102422.732500",
          "102425.342500",
          "102427.955000",
          "102430.565000",
          "102433.175000",
          "102435.785000",
          "102438.395000",
          "102441.005000",
          "102443.617500",
          "102446.227500",
          "102448.837500",
          "102451.447500",
          "102454.057500",
          "102456.667500",
          "102459.280000",
          "102501.890000",
          "102504.500000",
          "102507.110000",
          "102509.720000",
          "102512.332500",
          "102514.942500",
          "102517.552500",
          "102520.162500"
        ],
        "ContentTime": [
          "101901.562000",
          "101901.562000",
          "101902.046000",
          "101904.546000",
          "101907.046000",
          "101910.046000",
          "101912.546000",
          "101915.046000",
          "101917.546000",
          "101920.046000",
          "101923.046000",
          "101925.546000",
          "101928.046000",
          "101930.546000",
          "101933.046000",
          "101936.046000",
          "101938.546000",
          "101941.046000",
          "101943.546000",
          "101946.046000",
          "101949.046000",
          "101951.546000",
          "101954.046000",
          "101956.546000",
          "101959.046000",
          "102002.046000",
          "102004.546000",
          "102007.046000",
          "102009.546000",
          "102012.046000",
          "102015.046000",
          "102017.546000",
          "102020.046000",
          "102022.546000",
          "102025.046000",
          "102028.046000",
          "102030.546000",
          "102033.046000",
          "102035.546000",
          "102038.046000",
          "102041.046000",
          "102043.546000",
          "102046.046000",
          "102048.546000",
          "102051.046000",
          "102054.046000",
          "102056.546000",
          "102059.046000",
          "102101.546000",
          "102104.046000",
          "102107.046000",
          "102109.546000",
          "102112.046000",
          "102114.546000",
          "102117.046000",
          "102120.046000",
          "102122.546000",
          "102125.046000",
          "102127.546000",
          "102130.046000",
          "102133.046000",
          "102135.546000",
          "102138.046000",
          "102140.546000",
          "102143.046000",
          "102146.046000",
          "102148.546000",
          "102151.046000",
          "102153.546000",
          "102156.046000",
          "102159.046000",
          "102201.546000",
          "102204.046000",
          "102206.546000",
          "102209.046000",
          "102212.046000",
          "102214.546000",
          "102217.046000",
          "102219.546000",
          "102222.046000",
          "102225.046000",
          "102227.546000",
          "102230.046000",
          "102232.546000",
          "102235.046000",
          "102238.046000",
          "102240.546000",
          "102243.046000",
          "102245.546000",
          "102248.046000",
          "102251.046000",
          "102253.546000",
          "102256.046000",
          "102258.546000",
          "102301.046000",
          "102304.046000",
          "102306.546000",
          "102309.046000",
          "102311.546000",
          "102314.046000",
          "102317.046000",
          "102319.546000",
          "102322.046000",
          "102324.546000",
          "102327.046000",
          "102330.046000",
          "102332.546000",
          "102335.046000",
          "102337.546000",
          "102340.046000",
          "102343.046000",
          "102345.546000",
          "102348.046000",
          "102350.546000",
          "102353.046000",
          "102356.046000",
          "102358.546000",
          "102401.046000",
          "102403.546000",
          "102406.046000",
          "102409.046000",
          "102411.546000",
          "102414.046000",
          "102416.546000",
          "102419.046000",
          "102422.046000",
          "102424.546000",
          "102427.046000",
          "102429.546000",
          "102432.046000",
          "102435.046000",
          "102437.546000",
          "102440.046000",
          "102442.546000",
          "102445.046000",
          "102448.046000",
          "102450.546000",
          "102453.046000",
          "102455.546000",
          "102458.046000",
          "102501.046000",
          "102503.546000",
          "102506.046000",
          "102508.546000",
          "102511.046000",
          "102514.046000",
          "102516.546000",
          "102519.046000",
          "102521.546000",
          "102528.968000"
        ],
        "InstanceCreationTime": [
          "101901.562000",
          "101901.562000",
          "101902.046000",
          "101904.546000",
          "101907.046000",
          "101910.046000",
          "101912.546000",
          "101915.046000",
          "101917.546000",
          "101920.046000",
          "101923.046000",
          "101925.546000",
          "101928.046000",
          "101930.546000",
          "101933.046000",
          "101936.046000",
          "101938.546000",
          "101941.046000",
          "101943.546000",
          "101946.046000",
          "101949.046000",
          "101951.546000",
          "101954.046000",
          "101956.546000",
          "101959.046000",
          "102002.046000",
          "102004.546000",
          "102007.046000",
          "102009.546000",
          "102012.046000",
          "102015.046000",
          "102017.546000",
          "102020.046000",
          "102022.546000",
          "102025.046000",
          "102028.046000",
          "102030.546000",
          "102033.046000",
          "102035.546000",
          "102038.046000",
          "102041.046000",
          "102043.546000",
          "102046.046000",
          "102048.546000",
          "102051.046000",
          "102054.046000",
          "102056.546000",
          "102059.046000",
          "102101.546000",
          "102104.046000",
          "102107.046000",
          "102109.546000",
          "102112.046000",
          "102114.546000",
          "102117.046000",
          "102120.046000",
          "102122.546000",
          "102125.046000",
          "102127.546000",
          "102130.046000",
          "102133.046000",
          "102135.546000",
          "102138.046000",
          "102140.546000",
          "102143.046000",
          "102146.046000",
          "102148.546000",
          "102151.046000",
          "102153.546000",
          "102156.046000",
          "102159.046000",
          "102201.546000",
          "102204.046000",
          "102206.546000",
          "102209.046000",
          "102212.046000",
          "102214.546000",
          "102217.046000",
          "102219.546000",
          "102222.046000",
          "102225.046000",
          "102227.546000",
          "102230.046000",
          "102232.546000",
          "102235.046000",
          "102238.046000",
          "102240.546000",
          "102243.046000",
          "102245.546000",
          "102248.046000",
          "102251.046000",
          "102253.546000",
          "102256.046000",
          "102258.546000",
          "102301.046000",
          "102304.046000",
          "102306.546000",
          "102309.046000",
          "102311.546000",
          "102314.046000",
          "102317.046000",
          "102319.546000",
          "102322.046000",
          "102324.546000",
          "102327.046000",
          "102330.046000",
          "102332.546000",
          "102335.046000",
          "102337.546000",
          "102340.046000",
          "102343.046000",
          "102345.546000",
          "102348.046000",
          "102350.546000",
          "102353.046000",
          "102356.046000",
          "102358.546000",
          "102401.046000",
          "102403.546000",
          "102406.046000",
          "102409.046000",
          "102411.546000",
          "102414.046000",
          "102416.546000",
          "102419.046000",
          "102422.046000",
          "102424.546000",
          "102427.046000",
          "102429.546000",
          "102432.046000",
          "102435.046000",
          "102437.546000",
          "102440.046000",
          "102442.546000",
          "102445.046000",
          "102448.046000",
          "102450.546000",
          "102453.046000",
          "102455.546000",
          "102458.046000",
          "102501.046000",
          "102503.546000",
          "102506.046000",
          "102508.546000",
          "102511.046000",
          "102514.046000",
          "102516.546000",
          "102519.046000",
          "102521.546000",
          "102528.968000"
        ],
        "InstanceNumber": [
          1,
          2,
          3,
          4,
          5,
          6,
          7,
          8,
          9,
          10,
          11,
          12,
          13,
          14,
          15,
          16,
          17,
          18,
          19,
          20,
          21,
          22,
          23,
          24,
          25,
          26,
          27,
          28,
          29,
          30,
          31,
          32,
          33,
          34,
          35,
          36,
          37,
          38,
          39,
          40,
          41,
          42,
          43,
          44,
          45,
          46,
          47,
          48,
          49,
          50,
          51,
          52,
          53,
          54,
          55,
          56,
          57,
          58,
          59,
          60,
          61,
          62,
          63,
          64,
          65,
          66,
          67,
          68,
          69,
          70,
          71,
          72,
          73,
          74,
          75,
          76,
          77,
          78,
          79,
          80,
          81,
          82,
          83,
          84,
          85,
          86,
          87,
          88,
          89,
          90,
          91,
          92,
          93,
          94,
          95,
          96,
          97,
          98,
          99,
          100,
          101,
          102,
          103,
          104,
          105,
          106,
          107,
          108,
          109,
          110,
          111,
          112,
          113,
          114,
          115,
          116,
          117,
          118,
          119,
          120,
          121,
          122,
          123,
          124,
          125,
          126,
          127,
          128,
          129,
          130,
          131,
          132,
          133,
          134,
          135,
          136,
          137,
          138,
          139,
          140,
          141,
          142,
          143,
          144,
          145,
          146,
          147,
          148,
          149,
          150
        ],
        "WindowCenter": [
          884.0,
          884.0,
          883.0,
          880.0,
          879.0,
          882.0,
          882.0,
          881.0,
          881.0,
          881.0,
          883.0,
          881.0,
          881.0,
          882.0,
          882.0,
          881.0,
          882.0,
          881.0,
          880.0,
          881.0,
          880.0,
          881.0,
          882.0,
          881.0,
          879.0,
          880.0,
          881.0,
          880.0,
          880.0,
          881.0,
          884.0,
          881.0,
          880.0,
          881.0,
          883.0,
          883.0,
          881.0,
          881.0,
          883.0,
          881.0,
          880.0,
          881.0,
          882.0,
          881.0,
          881.0,
          881.0,
          883.0,
          881.0,
          880.0,
          880.0,
          881.0,
          882.0,
          882.0,
          882.0,
          881.0,
          882.0,
          883.0,
          883.0,
          882.0,
          879.0,
          882.0,
          883.0,
          883.0,
          881.0,
          882.0,
          882.0,
          882.0,
          883.0,
          882.0,
          883.0,
          881.0,
          879.0,
          881.0,
          883.0,
          882.0,
          880.0,
          881.0,
          883.0,
          881.0,
          880.0,
          879.0,
          880.0,
          882.0,
          880.0,
          881.0,
          881.0,
          880.0,
          880.0,
          880.0,
          881.0,
          881.0,
          881.0,
          881.0,
          882.0,
          881.0,
          881.0,
          883.0,
          882.0,
          881.0,
          882.0,
          882.0,
          880.0,
          879.0,
          881.0,
          880.0,
          879.0,
          879.0,
          879.0,
          881.0,
          881.0,
          881.0,
          882.0,
          884.0,
          882.0,
          881.0,
          881.0,
          882.0,
          883.0,
          883.0,
          880.0,
          881.0,
          882.0,
          879.0,
          878.0,
          878.0,
          880.0,
          879.0,
          878.0,
          878.0,
          880.0,
          880.0,
          880.0,
          881.0,
          881.0,
          880.0,
          880.0,
          880.0,
          880.0,
          879.0,
          877.0,
          877.0,
          880.0,
          882.0,
          880.0,
          880.0,
          879.0,
          880.0,
          880.0,
          880.0,
          881.0
        ],
        "WindowWidth": [
          1980.0,
          1979.0,
          1976.0,
          1966.0,
          1965.0,
          1973.0,
          1972.0,
          1970.0,
          1970.0,
          1972.0,
          1978.0,
          1971.0,
          1971.0,
          1973.0,
          1974.0,
          1971.0,
          1975.0,
          1971.0,
          1969.0,
          1972.0,
          1969.0,
          1971.0,
          1974.0,
          1970.0,
          1965.0,
          1967.0,
          1971.0,
          1969.0,
          1969.0,
          1972.0,
          1979.0,
          1971.0,
          1968.0,
          1972.0,
          1978.0,
          1975.0,
          1970.0,
          1970.0,
          1977.0,
          1971.0,
          1969.0,
          1973.0,
          1974.0,
          1970.0,
          1971.0,
          1970.0,
          1978.0,
          1969.0,
          1967.0,
          1967.0,
          1971.0,
          1975.0,
          1974.0,
          1974.0,
          1971.0,
          1972.0,
          1978.0,
          1977.0,
          1973.0,
          1964.0,
          1974.0,
          1976.0,
          1976.0,
          1972.0,
          1973.0,
          1975.0,
          1974.0,
          1976.0,
          1974.0,
          1976.0,
          1970.0,
          1965.0,
          1973.0,
          1979.0,
          1973.0,
          1969.0,
          1972.0,
          1975.0,
          1969.0,
          1967.0,
          1965.0,
          1968.0,
          1973.0,
          1969.0,
          1970.0,
          1972.0,
          1968.0,
          1968.0,
          1968.0,
          1970.0,
          1972.0,
          1970.0,
          1970.0,
          1974.0,
          1971.0,
          1971.0,
          1976.0,
          1973.0,
          1971.0,
          1973.0,
          1974.0,
          1967.0,
          1964.0,
          1970.0,
          1968.0,
          1966.0,
          1965.0,
          1965.0,
          1970.0,
          1971.0,
          1970.0,
          1973.0,
          1979.0,
          1975.0,
          1970.0,
          1970.0,
          1973.0,
          1977.0,
          1976.0,
          1969.0,
          1970.0,
          1974.0,
          1964.0,
          1963.0,
          1963.0,
          1968.0,
          1965.0,
          1963.0,
          1962.0,
          1969.0,
          1968.0,
          1968.0,
          1970.0,
          1971.0,
          1969.0,
          1968.0,
          1969.0,
          1967.0,
          1965.0,
          1960.0,
          1958.0,
          1967.0,
          1973.0,
          1969.0,
          1966.0,
          1965.0,
          1968.0,
          1969.0,
          1968.0,
          1970.0
        ]
      },
      "slices": {}
    }
  },
  "dummy_trs": 0,
  "dvars_nstd": 80.54094573147655,
  "dvars_std": 1.053437110939597,
  "dvars_vstd": 1.0215693930872483,
  "efc": 0.598885806455667,
  "fber": 170.40599060058594,
  "fd_mean": 0.06174580961287244,
  "fd_num": 2,
  "fd_perc": 1.3333333333333333,
  "fwhm_avg": 3.2002936427362676,
  "fwhm_x": 2.9732289954506053,
  "fwhm_y": 3.0637792827303287,
  "fwhm_z": 3.563872650027868,
  "gcor": 0.00237662,
  "gsr_x": 0.05889507755637169,
  "gsr_y": 0.005737090948969126,
  "provenance": {
    "md5sum": "1b344c617bd5263cb934125806c5dcbb",
    "settings": {
      "fd_thres": 0.2,
      "testing": false
    },
    "software": "mriqc",
    "version": "22.0.0rc1",
    "webapi_port": null,
    "webapi_url": "https://mriqc.nimh.nih.gov/api/v1"
  },
  "size_t": 150,
  "size_x": 188,
  "size_y": 188,
  "size_z": 46,
  "snr": 1.8280583244124027,
  "spacing_tr": 2.5999999046325684,
  "spacing_x": 1.0957447290420532,
  "spacing_y": 1.0957447290420532,
  "spacing_z": 1.100000023841858,
  "summary_bg_k": 38.93392091358418,
  "summary_bg_mad": 36.501665036017904,
  "summary_bg_mean": 113.10525512695312,
  "summary_bg_median": 62.21333312988281,
  "summary_bg_n": 993769.0,
  "summary_bg_p05": 30.65333366394043,
