{
  "aor": 0.0005545333333333333,
  "aqi": 0.012708876000000001,
  "bids_meta": {
    "AcquisitionMatrixPE": 188,
    "AcquisitionNumber": 1,
    "AcquisitionTime": "10:02:14.315000",
    "BandwidthPerPixelPhaseEncode": 19.46,
    "BaseResolution": 188,
    "CogAtlasID": "TODO",
    "ConversionSoftware": "dcm2niix",
    "ConversionSoftwareVersion": "v1.0.20180606 GCC4.8.5",
    "DelayTime": 1.2,
    "DerivedVendorReportedEchoSpacing": 0.000820013,
    "DeviceSerialNumber": "18930",
    "DwellTime": 1.9e-06,
    "EchoTime": 0.02,
    "EffectiveEchoSpacing": 0.000273338,
    "FlipAngle": 80,
    "ImageComments": "Unaliased_MB2_PE2",
    "ImageOrientationPatientDICOM": [
      0.999755,
      0.015956,
      0.0153145,
      0.0114333,
      0.219867,
      -0.975463
    ],
    "ImageType": [
      "ORIGINAL",
      "PRIMARY",
      "M",
      "MB",
      "ND",
      "MOSAIC"
    ],
    "InPlanePhaseEncodingDirectionDICOM": "COL",
    "InstitutionAddress": "Oxfordlaan_55_Maastricht_12C0A2_Limburg_NL_6229_EV",
    "InstitutionName": "Scannexus",
    "InstitutionalDepartmentName": "MRI_7T",
    "MRAcquisitionType": "2D",
    "MagneticFieldStrength": 6.98,
    "Manufacturer": "Siemens",
    "ManufacturersModelName": "Investigational_Device_7T",
    "Modality": "MR",
    "MultibandAccelerationFactor": 2,
    "ParallelReductionFactorInPlane": 3,
    "PartialFourier": 0.75,
    "PatientPosition": "HFS",
    "PercentPhaseFOV": 100,
    "PhaseEncodingDirection": "j",
    "PhaseEncodingSteps": 141,
    "PhaseResolution": 1,
    "PixelBandwidth": 1400,
    "ProcedureStepDescription": "FeDem_Faruk",
    "ProtocolName": "cmrr_mbep2d_bold_AP_run9",
    "PulseSequenceDetails": "%CustomerSeq%_cmrr_mbep2d_bold",
    "ReceiveCoilName": "32Ch_Head_7T",
    "ReconMatrixPE": 188,
    "RepetitionTime": 2.6,
    "SAR": 0.0530253,
    "ScanOptions": "PFP_FS",
    "ScanningSequence": "EP",
    "SequenceName": "epfid2d1_188",
    "SequenceVariant": "SK_SS",
    "SeriesDescription": "cmrr_mbep2d_bold_AP_run9",
    "SeriesNumber": 20,
    "ShimSetting": [
      110,
      -39,
      352,
      551,
      168,
      265,
      -75,
      84
    ],
    "SliceThickness": 1.1,
    "SliceTiming": [
      0,
      0.7325,
      0.06,
      0.7925,
      0.1225,
      0.855,
      0.1825,
      0.915,
      0.2425,
      0.9775,
      0.305,
      1.0375,
      0.365,
      1.1,
      0.4275,
      1.16,
      0.4875,
      1.22,
      0.55,
      1.2825,
      0.61,
      1.3425,
      0.6725,
      0,
      0.7325,
      0.06,
      0.7925,
      0.1225,
      0.855,
      0.1825,
      0.915,
      0.2425,
      0.9775,
      0.305,
      1.0375,
      0.365,
      1.1,
      0.4275,
      1.16,
      0.4875,
      1.22,
      0.55,
      1.2825,
      0.61,
      1.3425,
      0.6725
    ],
    "SoftwareVersions": "syngo_MR_B17",
    "SpacingBetweenSlices": 1.1,
    "StationName": "MRC18930",
    "TaskName": "auditory",
    "TotalReadoutTime": 0.0511141,
    "TxRefAmp": 185,
    "dataset": "ds001942",
    "dcmmeta_affine": [
      [
        -1.095476746559143,
        0.012527965009212494,
        0.020824825391173363,
        103.05306243896484
      ],
      [
        -0.017483726143836975,
        0.24091863632202148,
        -1.072939157485962,
        21.79283905029297
      ],
      [
        0.016780756413936615,
        1.0688581466674805,
        0.24159440398216248,
        -118.52979278564453
      ],
      [
        0.0,
        0.0,
        0.0,
        1.0
      ]
    ],
    "dcmmeta_reorient_transform": [
      [
        0.0,
        -1.0,
        0.0,
        187.0
      ],
      [
        1.0,
        0.0,
        0.0,
        0.0
      ],
      [
        0.0,
        0.0,
        1.0,
        0.0
      ],
      [
        0.0,
        0.0,
        0.0,
        1.0
      ]
    ],
    "dcmmeta_shape": [
      188,
      188,
      46,
      150
    ],
    "dcmmeta_slice_dim": 2,
    "dcmmeta_version": 0.6,
    "global": {
      "const": {
        "AcquisitionMatrix": [
          188,
          0,
          0,
          188
        ],
        "AngioFlag": "N",
        "BitsAllocated": 16,
        "BitsStored": 12,
        "Columns": 1316,
        "EchoNumbers": 1,
        "EchoTime": 20.0,
        "EchoTrainLength": 1,
        "FlipAngle": 80.0,
        "HighBit": 11,
        "ImageOrientationPatient": [
          0.99975540619208,
          0.01595602073933,
          0.01531447654586,
          0.01143328775089,
          0.21986748273264,
          -0.9754627465813
        ],
        "ImagePositionPatient": [
          -730.31042959187,
          -212.58355542209,
          674.71833962045
        ],
        "ImageType": [
          "ORIGINAL",
          "PRIMARY",
          "M",
          "MB",
          "ND",
          "MOSAIC"
        ],
        "ImagedNucleus": "1H",
        "ImagingFrequency": 297.205751,
        "InPlanePhaseEncodingDirection": "COL",
        "LargestImagePixelValue": 4095,
        "MRAcquisitionType": "2D",
        "MagneticFieldStrength": 6.98,
        "Manufacturer": "SIEMENS",
        "ManufacturerModelName": "Investigational_Device_7T",
        "Modality": "MR",
        "NumberOfAverages": 1.0,
        "NumberOfPhaseEncodingSteps": 141,
        "PercentPhaseFieldOfView": 100.0,
        "PercentSampling": 100.0,
        "PerformedProcedureStepStartTime": "080807.562000",
        "PhotometricInterpretation": "MONOCHROME2",
        "PixelBandwidth": 1400.0,
        "PixelRepresentation": 0,
        "PixelSpacing": [
          1.0957447290421,
          1.0957447290421
        ],
        "ProtocolName": "cmrr_mbep2d_bold_AP_run9",
        "RepetitionTime": 2600.0,
        "Rows": 1316,
        "SAR": 0.05302532676026,
        "SamplesPerPixel": 1,
        "ScanOptions": [
          "PFP",
          "FS"
        ],
        "ScanningSequence": "EP",
        "SequenceName": "epfid2d1_188",
        "SequenceVariant": [
          "SK",
          "SS"
        ],
        "SeriesDescription": "cmrr_mbep2d_bold_AP_run9",
        "SeriesNumber": 20,
        "SeriesTime": "100224.671000",
        "SliceLocation": -45.338603166727,
        "SliceThickness": 1.1000000238419,
        "SmallestImagePixelValue": 0,
        "SoftwareVersions": "syngo MR B17",
        "SpacingBetweenSlices": 1.0999999744075,
        "SpecificCharacterSet": "ISO_IR 100",
        "StudyID": "1",
        "StudyTime": "080807.515000",
        "TransmitCoilName": "32Ch_Head_7T",
        "VariableFlipAngleFlag": "N",
        "WindowCenterWidthExplanation": "Algo1",
        "dBdt": 0.0
      },
      "slices": {}
    },
    "modality": "bold",
    "run_id": 9,
    "session_id": "SES02",
    "subject_id": "S02",
    "task_id": "auditory",
    "time": {
      "samples": {
        "AcquisitionNumber": [
          1,
          2,
          3,
          4,
          5,
          6,
          7,
          8,
          9,
          10,
          11,
          12,
          13,
          14,
          15,
          16,
          17,
          18,
          19,
          20,
          21,
          22,
          23,
          24,
          25,
          26,
          27,
          28,
          29,
          30,
          31,
          32,
          33,
          34,
          35,
          36,
          37,
          38,
          39,
          40,
          41,
          42,
          43,
          44,
          45,
          46,
          47,
          48,
          49,
          50,
          51,
          52,
          53,
          54,
          55,
          56,
          57,
          58,
          59,
          60,
          61,
          62,
          63,
          64,
          65,
          66,
          67,
          68,
          69,
          70,
          71,
          72,
          73,
          74,
          75,
          76,
          77,
          78,
          79,
          80,
          81,
          82,
          83,
          84,
          85,
          86,
          87,
          88,
          89,
          90,
          91,
          92,
          93,
          94,
          95,
          96,
          97,
          98,
          99,
          100,
          101,
          102,
          103,
          104,
          105,
          106,
          107,
          108,
          109,
          110,
          111,
          112,
          113,
          114,
          115,
          116,
          117,
          118,
          119,
          120,
          121,
          122,
          123,
          124,
          125,
          126,
          127,
          128,
          129,
          130,
          131,
          132,
          133,
          134,
          135,
          136,
          137,
          138,
          139,
          140,
          141,
          142,
          143,
          144,
          145,
          146,
          147,
          148,
          149,
          150
        ],
        "AcquisitionTime": [
          "100214.315000",
          "100216.925000",
          "100219.535000",
          "100222.145000",
          "100224.755000",
          "100227.367500",
          "100229.977500",
          "100232.587500",
          "100235.197500",
          "100237.807500",
          "100240.417500",
          "100243.030000",
          "100245.640000",
          "100248.250000",
          "100250.860000",
          "100253.470000",
          "100256.080000",
          "100258.692500",
          "100301.302500",
          "100303.912500",
          "100306.522500",
          "100309.132500",
          "100311.745000",
          "100314.355000",
          "100316.965000",
          "100319.575000",
          "100322.185000",
          "100324.795000",
          "100327.407500",
          "100330.017500",
          "100332.627500",
          "100335.237500",
          "100337.847500",
          "100340.457500",
          "100343.070000",
          "100345.680000",
          "100348.290000",
          "100350.900000",
          "100353.510000",
          "100356.122500",
          "100358.732500",
          "100401.342500",
          "100403.952500",
          "100406.562500",
          "100409.172500",
          "100411.785000",
          "100414.395000",
          "100417.005000",
          "100419.615000",
          "100422.225000",
          "100424.835000",
          "100427.447500",
          "100430.057500",
          "100432.667500",
          "100435.277500",
          "100437.887500",
          "100440.500000",
          "100443.110000",
          "100445.720000",
          "100448.330000",
          "100450.940000",
          "100453.550000",
          "100456.162500",
          "100458.772500",
          "100501.382500",
          "100503.992500",
          "100506.602500",
          "100509.212500",
          "100511.825000",
          "100514.435000",
          "100517.045000",
          "100519.655000",
          "100522.265000",
          "100524.877500",
          "100527.487500",
          "100530.097500",
          "100532.707500",
          "100535.317500",
          "100537.927500",
          "100540.540000",
          "100543.150000",
          "100545.760000",
          "100548.370000",
          "100550.980000",
          "100553.590000",
          "100556.202500",
          "100558.812500",
          "100601.422500",
          "100604.032500",
          "100606.642500",
          "100609.255000",
          "100611.865000",
          "100614.475000",
          "100617.085000",
          "100619.695000",
          "100622.305000",
          "100624.917500",
          "100627.527500",
          "100630.137500",
          "100632.747500",
          "100635.357500",
          "100637.967500",
          "100640.580000",
          "100643.190000",
          "100645.800000",
          "100648.410000",
          "100651.020000",
          "100653.632500",
          "100656.242500",
          "100658.852500",
          "100701.462500",
          "100704.072500",
          "100706.682500",
          "100709.295000",
          "100711.905000",
          "100714.515000",
          "100717.125000",
          "100719.735000",
          "100722.345000",
          "100724.957500",
          "100727.567500",
          "100730.177500",
          "100732.787500",
          "100735.397500",
          "100738.010000",
          "100740.620000",
          "100743.230000",
          "100745.840000",
          "100748.450000",
          "100751.060000",
          "100753.672500",
          "100756.282500",
          "100758.892500",
          "100801.502500",
          "100804.112500",
          "100806.725000",
          "100809.335000",
          "100811.945000",
          "100814.555000",
          "100817.165000",
          "100819.775000",
          "100822.387500",
          "100824.997500",
          "100827.607500",
          "100830.217500",
          "100832.827500",
          "100835.437500",
          "100838.050000",
          "100840.660000",
          "100843.270000"
        ],
        "ContentTime": [
          "100224.671000",
          "100224.671000",
          "100225.656000",
          "100227.656000",
          "100230.156000",
          "100232.656000",
          "100235.656000",
          "100238.156000",
          "100240.656000",
          "100243.156000",
          "100245.656000",
          "100248.656000",
          "100251.156000",
          "100253.656000",
          "100256.156000",
          "100258.656000",
          "100301.656000",
          "100304.156000",
          "100306.656000",
          "100309.156000",
          "100311.656000",
          "100314.656000",
          "100317.156000",
          "100319.656000",
          "100322.140000",
          "100324.640000",
          "100327.656000",
          "100330.156000",
          "100332.656000",
          "100335.156000",
          "100337.656000",
          "100340.656000",
          "100343.156000",
          "100345.656000",
          "100348.156000",
          "100350.656000",
          "100353.656000",
          "100356.156000",
          "100358.656000",
          "100401.156000",
          "100403.656000",
          "100406.656000",
          "100409.156000",
          "100411.656000",
          "100414.156000",
          "100416.656000",
          "100419.656000",
          "100422.156000",
          "100424.656000",
          "100427.156000",
          "100429.656000",
          "100432.656000",
          "100435.156000",
          "100437.656000",
          "100440.156000",
          "100442.656000",
          "100445.656000",
          "100448.156000",
          "100450.656000",
          "100453.156000",
          "100455.656000",
          "100458.656000",
          "100501.156000",
          "100503.656000",
          "100506.156000",
          "100508.656000",
          "100511.656000",
          "100514.156000",
          "100516.656000",
          "100519.156000",
          "100521.656000",
          "100524.656000",
          "100527.156000",
          "100529.656000",
          "100532.156000",
          "100534.656000",
          "100537.656000",
          "100540.156000",
          "100542.656000",
          "100545.156000",
          "100547.656000",
          "100550.656000",
          "100553.156000",
          "100555.656000",
          "100558.156000",
          "100600.656000",
          "100603.656000",
          "100606.156000",
          "100608.656000",
          "100611.156000",
          "100613.656000",
          "100616.656000",
          "100619.156000",
          "100621.656000",
          "100624.156000",
          "100626.656000",
          "100629.656000",
          "100632.156000",
          "100634.656000",
          "100637.156000",
          "100639.656000",
          "100642.656000",
          "100645.156000",
          "100647.656000",
          "100650.156000",
          "100652.656000",
          "100655.656000",
          "100658.156000",
          "100700.656000",
          "100703.156000",
          "100705.656000",
          "100708.656000",
          "100711.140000",
          "100713.656000",
          "100716.156000",
          "100718.656000",
          "100721.656000",
          "100724.156000",
          "100726.656000",
          "100729.156000",
          "100731.656000",
          "100734.656000",
          "100737.156000",
          "100739.656000",
          "100742.156000",
          "100744.656000",
          "100747.656000",
          "100750.156000",
          "100752.656000",
          "100755.156000",
          "100757.656000",
          "100800.656000",
          "100803.156000",
          "100805.640000",
          "100808.140000",
          "100810.656000",
          "100813.656000",
          "100816.156000",
          "100818.656000",
          "100821.156000",
          "100823.656000",
          "100826.656000",
          "100829.156000",
          "100831.656000",
          "100834.156000",
          "100836.656000",
          "100839.656000",
          "100842.156000",
          "100844.656000",
          "100852.046000"
        ],
        "InstanceCreationTime": [
          "100224.671000",
          "100224.671000",
          "100225.656000",
          "100227.656000",
          "100230.156000",
          "100232.656000",
          "100235.656000",
          "100238.156000",
          "100240.656000",
          "100243.156000",
          "100245.656000",
          "100248.656000",
          "100251.156000",
          "100253.656000",
          "100256.156000",
          "100258.656000",
          "100301.656000",
          "100304.156000",
          "100306.656000",
          "100309.156000",
          "100311.656000",
          "100314.656000",
          "100317.156000",
          "100319.656000",
          "100322.140000",
          "100324.640000",
          "100327.656000",
          "100330.156000",
          "100332.656000",
          "100335.156000",
          "100337.656000",
          "100340.656000",
          "100343.156000",
          "100345.656000",
          "100348.156000",
          "100350.656000",
          "100353.656000",
          "100356.156000",
          "100358.656000",
          "100401.156000",
          "100403.656000",
          "100406.656000",
          "100409.156000",
          "100411.656000",
          "100414.156000",
          "100416.656000",
          "100419.656000",
          "100422.156000",
          "100424.656000",
          "100427.156000",
          "100429.656000",
          "100432.656000",
          "100435.156000",
          "100437.656000",
          "100440.156000",
          "100442.656000",
          "100445.656000",
          "100448.156000",
          "100450.656000",
          "100453.156000",
          "100455.656000",
          "100458.656000",
          "100501.156000",
          "100503.656000",
          "100506.156000",
          "100508.656000",
          "100511.656000",
          "100514.156000",
          "100516.656000",
          "100519.156000",
          "100521.656000",
          "100524.656000",
          "100527.156000",
          "100529.656000",
          "100532.156000",
          "100534.656000",
          "100537.656000",
          "100540.156000",
          "100542.656000",
          "100545.156000",
          "100547.656000",
          "100550.656000",
          "100553.156000",
          "100555.656000",
          "100558.156000",
          "100600.656000",
          "100603.656000",
          "100606.156000",
          "100608.656000",
          "100611.156000",
          "100613.656000",
          "100616.656000",
          "100619.156000",
          "100621.656000",
          "100624.156000",
          "100626.656000",
          "100629.656000",
          "100632.156000",
          "100634.656000",
          "100637.156000",
          "100639.656000",
          "100642.656000",
          "100645.156000",
          "100647.656000",
          "100650.156000",
          "100652.656000",
          "100655.656000",
          "100658.156000",
          "100700.656000",
          "100703.156000",
          "100705.656000",
          "100708.656000",
          "100711.140000",
          "100713.656000",
          "100716.156000",
          "100718.656000",
          "100721.656000",
          "100724.156000",
          "100726.656000",
          "100729.156000",
          "100731.656000",
          "100734.656000",
          "100737.156000",
          "100739.656000",
          "100742.156000",
          "100744.656000",
          "100747.656000",
          "100750.156000",
          "100752.656000",
          "100755.156000",
          "100757.656000",
          "100800.656000",
          "100803.156000",
          "100805.640000",
          "100808.140000",
          "100810.656000",
          "100813.656000",
          "100816.156000",
          "100818.656000",
          "100821.156000",
          "100823.656000",
          "100826.656000",
          "100829.156000",
          "100831.656000",
          "100834.156000",
          "100836.656000",
          "100839.656000",
          "100842.156000",
          "100844.656000",
          "100852.046000"
        ],
        "InstanceNumber": [
          1,
          2,
          3,
          4,
          5,
          6,
          7,
          8,
          9,
          10,
          11,
          12,
          13,
          14,
          15,
          16,
          17,
          18,
          19,
          20,
          21,
          22,
          23,
          24,
          25,
          26,
          27,
          28,
          29,
          30,
          31,
          32,
          33,
          34,
          35,
          36,
          37,
          38,
          39,
          40,
          41,
          42,
          43,
          44,
          45,
          46,
          47,
          48,
          49,
          50,
          51,
          52,
          53,
          54,
          55,
          56,
          57,
          58,
          59,
          60,
          61,
          62,
          63,
          64,
          65,
          66,
          67,
          68,
          69,
          70,
          71,
          72,
          73,
          74,
          75,
          76,
          77,
          78,
          79,
          80,
          81,
          82,
          83,
          84,
          85,
          86,
          87,
          88,
          89,
          90,
          91,
          92,
          93,
          94,
          95,
          96,
          97,
          98,
          99,
          100,
          101,
          102,
          103,
          104,
          105,
          106,
          107,
          108,
          109,
          110,
          111,
          112,
          113,
          114,
          115,
          116,
          117,
          118,
          119,
          120,
          121,
          122,
          123,
          124,
          125,
          126,
          127,
          128,
          129,
          130,
          131,
          132,
          133,
          134,
          135,
          136,
          137,
          138,
          139,
          140,
          141,
          142,
          143,
          144,
          145,
          146,
          147,
          148,
          149,
          150
        ],
        "WindowCenter": [
          882.0,
          879.0,
          878.0,
          878.0,
          878.0,
          879.0,
          879.0,
          877.0,
          876.0,
          876.0,
          877.0,
          879.0,
          879.0,
          879.0,
          878.0,
          878.0,
          878.0,
          878.0,
          878.0,
          877.0,
          878.0,
          879.0,
          881.0,
          881.0,
          882.0,
          879.0,
          877.0,
          878.0,
          879.0,
          878.0,
          879.0,
          878.0,
          880.0,
          879.0,
          880.0,
          879.0,
          879.0,
          879.0,
          880.0,
          878.0,
          879.0,
          879.0,
          880.0,
          879.0,
          877.0,
          879.0,
          880.0,
          880.0,
          879.0,
          879.0,
          880.0,
          879.0,
          879.0,
          878.0,
          878.0,
          881.0,
          881.0,
          880.0,
          879.0,
          880.0,
          882.0,
          882.0,
          880.0,
          880.0,
          882.0,
          880.0,
          879.0,
          880.0,
          881.0,
          881.0,
          880.0,
          881.0,
          882.0,
          881.0,
          879.0,
          879.0,
          879.0,
          881.0,
          881.0,
          879.0,
          877.0,
          877.0,
          881.0,
          880.0,
          879.0,
          879.0,
          880.0,
          881.0,
          880.0,
          881.0,
          881.0,
          881.0,
          881.0,
          880.0,
          880.0,
          880.0,
          878.0,
          880.0,
          882.0,
          881.0,
          880.0,
          881.0,
          881.0,
          883.0,
          881.0,
          880.0,
          881.0,
          883.0,
          881.0,
          881.0,
          882.0,
          883.0,
          882.0,
          880.0,
          880.0,
          881.0,
          880.0,
          880.0,
          881.0,
          881.0,
          881.0,
          881.0,
          881.0,
          881.0,
          882.0,
          883.0,
          880.0,
          879.0,
          882.0,
          883.0,
          880.0,
          880.0,
          882.0,
          883.0,
          881.0,
          882.0,
          883.0,
          883.0,
          883.0,
          881.0,
          881.0,
          882.0,
          881.0,
          881.0,
          881.0,
          883.0,
          880.0,
          880.0,
          882.0,
          882.0
        ],
        "WindowWidth": [
          1974.0,
          1963.0,
          1963.0,
          1960.0,
          1961.0,
          1966.0,
          1963.0,
          1959.0,
          1957.0,
          1956.0,
          1960.0,
          1964.0,
          1964.0,
          1966.0,
          1962.0,
          1963.0,
          1962.0,
          1961.0,
          1960.0,
          1960.0,
          1963.0,
          1964.0,
          1969.0,
          1971.0,
          1975.0,
          1966.0,
          1959.0,
          1962.0,
          1965.0,
          1962.0,
          1964.0,
          1963.0,
          1968.0,
          1965.0,
          1967.0,
          1965.0,
          1965.0,
          1966.0,
          1967.0,
          1961.0,
          1964.0,
          1965.0,
          1967.0,
          1964.0,
          1960.0,
          1964.0,
          1968.0,
          1968.0,
          1965.0,
          1964.0,
          1967.0,
          1965.0,
          1964.0,
          1962.0,
          1964.0,
          1970.0,
          1971.0,
          1967.0,
          1966.0,
          1968.0,
          1973.0,
          1973.0,
          1969.0,
          1968.0,
          1974.0,
          1969.0,
          1965.0,
          1969.0,
          1971.0,
          1972.0,
          1968.0,
          1970.0,
          1972.0,
          1969.0,
          1965.0,
          1963.0,
          1964.0,
          1971.0,
          1971.0,
          1964.0,
          1958.0,
          1958.0,
          1970.0,
          1967.0,
          1965.0,
          1966.0,
          1969.0,
          1971.0,
          1969.0,
          1970.0,
          1970.0,
          1970.0,
          1971.0,
          1968.0,
          1968.0,
          1967.0,
          1962.0,
          1967.0,
          1972.0,
          1970.0,
          1968.0,
          1971.0,
          1971.0,
          1975.0,
          1972.0,
          1969.0,
          1972.0,
          1978.0,
          1972.0,
          1972.0,
          1974.0,
          1979.0,
          1975.0,
          1966.0,
          1969.0,
          1970.0,
          1968.0,
          1969.0,
          1969.0,
          1970.0,
          1971.0,
          1970.0,
          1970.0,
          1970.0,
          1973.0,
          1977.0,
          1968.0,
          1967.0,
          1973.0,
          1975.0,
          1969.0,
          1967.0,
          1974.0,
          1976.0,
          1971.0,
          1974.0,
          1978.0,
          1975.0,
          1975.0,
          1970.0,
          1972.0,
          1972.0,
          1970.0,
          1970.0,
          1972.0,
          1975.0,
          1968.0,
          1968.0,
          1973.0,
          1973.0
        ]
      },
      "slices": {}
    }
  },
  "dummy_trs": 0,
  "dvars_nstd": 79.41283601073822,
  "dvars_std": 1.0429797534228187,
  "dvars_vstd": 1.0157614220805378,
  "efc": 0.5986872868038192,
  "fber": 175.33990478515625,
  "fd_mean": 0.061132919748793146,
  "fd_num": 0,
  "fd_perc": 0.0,
  "fwhm_avg": 3.2106461284442225,
  "fwhm_x": 2.9832313251077895,
  "fwhm_y": 3.066279865144624,
  "fwhm_z": 3.582427195080254,
  "gcor": 0.00297548,
  "gsr_x": 0.058314669877290726,
  "gsr_y": 0.005845597945153713,
  "provenance": {
    "md5sum": "d42a25382b4ee8e89b3279e5af09abaa",
    "settings": {
      "fd_thres": 0.2,
      "testing": false
    },
    "software": "mriqc",
    "version": "22.0.0rc1",
    "webapi_port": null,
    "webapi_url": "https://mriqc.nimh.nih.gov/api/v1"
  },
  "size_t": 150,
  "size_x": 188,
  "size_y": 188,
  "size_z": 46,
  "snr": 1.8379354271680888,
  "spacing_tr": 2.5999999046325684,
  "spacing_x": 1.0957447290420532,
  "spacing_y": 1.0957447290420532,
  "spacing_z": 1.100000023841858,
  "summary_bg_k": 38.81289135468371,
  "summary_bg_mad": 35.44408141079873,
  "summary_bg_mean": 112.02069091796875,
  "summary_bg_median": 61.220001220703125,
  "summary_bg_n": 993051.0,
  "summary_bg_p05": 30.393333435058594,
