{
  "aor": 0.0005931333333333333,
  "aqi": 0.012797621999999998,
  "bids_meta": {
    "AcquisitionMatrixPE": 188,
    "AcquisitionNumber": 1,
    "AcquisitionTime": "09:17:32.320000",
    "BandwidthPerPixelPhaseEncode": 19.46,
    "BaseResolution": 188,
    "ConversionSoftware": "dcm2niix",
    "ConversionSoftwareVersion": "v1.0.20180606 GCC4.8.5",
    "DelayTime": 1.2,
    "DerivedVendorReportedEchoSpacing": 0.000820013,
    "DeviceSerialNumber": "18930",
    "DwellTime": 1.9e-06,
    "EchoTime": 0.02,
    "EffectiveEchoSpacing": 0.000273338,
    "FlipAngle": 80,
    "ImageComments": "Unaliased_MB2_PE2",
    "ImageOrientationPatientDICOM": [
      0.999755,
      0.015956,
      0.0153145,
      0.0114333,
      0.219867,
      -0.975463
    ],
    "ImageType": [
      "ORIGINAL",
      "PRIMARY",
      "M",
      "MB",
      "ND",
      "MOSAIC"
    ],
    "InPlanePhaseEncodingDirectionDICOM": "COL",
    "InstitutionAddress": "Oxfordlaan_55_Maastricht_12C0A2_Limburg_NL_6229_EV",
    "InstitutionName": "Scannexus",
    "InstitutionalDepartmentName": "MRI_7T",
    "MRAcquisitionType": "2D",
    "MagneticFieldStrength": 6.98,
    "Manufacturer": "Siemens",
    "ManufacturersModelName": "Investigational_Device_7T",
    "Modality": "MR",
    "MultibandAccelerationFactor": 2,
    "ParallelReductionFactorInPlane": 3,
    "PartialFourier": 0.75,
    "PatientPosition": "HFS",
    "PercentPhaseFOV": 100,
    "PhaseEncodingDirection": "j",
    "PhaseEncodingSteps": 141,
    "PhaseResolution": 1,
    "PixelBandwidth": 1400,
    "ProcedureStepDescription": "FeDem_Faruk",
    "ProtocolName": "cmrr_mbep2d_bold_AP_run4",
    "PulseSequenceDetails": "%CustomerSeq%_cmrr_mbep2d_bold",
    "ReceiveCoilName": "32Ch_Head_7T",
    "ReconMatrixPE": 188,
    "RepetitionTime": 2.6,
    "SAR": 0.0530047,
    "ScanOptions": "PFP_FS",
    "ScanningSequence": "EP",
    "SequenceName": "epfid2d1_188",
    "SequenceVariant": "SK_SS",
    "SeriesDescription": "cmrr_mbep2d_bold_AP_run4",
    "SeriesNumber": 13,
    "ShimSetting": [
      110,
      -39,
      352,
      551,
      168,
      265,
      -75,
      84
    ],
    "SliceThickness": 1.1,
    "SliceTiming": [
      0,
      0.7325,
      0.06,
      0.795,
      0.1225,
      0.855,
      0.1825,
      0.9175,
      0.245,
      0.9775,
      0.305,
      1.0375,
      0.3675,
      1.1,
      0.4275,
      1.16,
      0.4875,
      1.2225,
      0.55,
      1.2825,
      0.61,
      1.345,
      0.6725,
      0,
      0.7325,
      0.06,
      0.795,
      0.1225,
      0.855,
      0.1825,
      0.9175,
      0.245,
      0.9775,
      0.305,
      1.0375,
      0.3675,
      1.1,
      0.4275,
      1.16,
      0.4875,
      1.2225,
      0.55,
      1.2825,
      0.61,
      1.345,
      0.6725
    ],
    "SoftwareVersions": "syngo_MR_B17",
    "SpacingBetweenSlices": 1.1,
    "StationName": "MRC18930",
    "TaskName": "auditory",
    "TotalReadoutTime": 0.0511141,
    "TxRefAmp": 185,
    "dataset": "ds001942",
    "dcmmeta_affine": [
      [
        -1.095476746559143,
        0.012527965009212494,
        0.020824825391173363,
        103.05306243896484
      ],
      [
        -0.017483726143836975,
        0.24091863632202148,
        -1.072939157485962,
        21.79283905029297
      ],
      [
        0.016780756413936615,
        1.0688581466674805,
        0.24159440398216248,
        -118.52979278564453
      ],
      [
        0.0,
        0.0,
        0.0,
        1.0
      ]
    ],
    "dcmmeta_reorient_transform": [
      [
        0.0,
        -1.0,
        0.0,
        187.0
      ],
      [
        1.0,
        0.0,
        0.0,
        0.0
      ],
      [
        0.0,
        0.0,
        1.0,
        0.0
      ],
      [
        0.0,
        0.0,
        0.0,
        1.0
      ]
    ],
    "dcmmeta_shape": [
      188,
      188,
      46,
      150
    ],
    "dcmmeta_slice_dim": 2,
    "dcmmeta_version": 0.6,
    "global": {
      "const": {
        "AcquisitionMatrix": [
          188,
          0,
          0,
          188
        ],
        "AngioFlag": "N",
        "BitsAllocated": 16,
        "BitsStored": 12,
        "Columns": 1316,
        "EchoNumbers": 1,
        "EchoTime": 20.0,
        "EchoTrainLength": 1,
        "FlipAngle": 80.0,
        "HighBit": 11,
        "ImageOrientationPatient": [
          0.99975540619208,
          0.01595602073933,
          0.01531447654586,
          0.01143328775089,
          0.21986748273264,
          -0.9754627465813
        ],
        "ImagePositionPatient": [
          -730.31042959187,
          -212.58355542209,
          674.71833962045
        ],
        "ImageType": [
          "ORIGINAL",
          "PRIMARY",
          "M",
          "MB",
          "ND",
          "MOSAIC"
        ],
        "ImagedNucleus": "1H",
        "ImagingFrequency": 297.205729,
        "InPlanePhaseEncodingDirection": "COL",
        "LargestImagePixelValue": 4095,
        "MRAcquisitionType": "2D",
        "MagneticFieldStrength": 6.98,
        "Manufacturer": "SIEMENS",
        "ManufacturerModelName": "Investigational_Device_7T",
        "Modality": "MR",
        "NumberOfAverages": 1.0,
        "NumberOfPhaseEncodingSteps": 141,
        "PercentPhaseFieldOfView": 100.0,
        "PercentSampling": 100.0,
        "PerformedProcedureStepStartTime": "080807.562000",
        "PhotometricInterpretation": "MONOCHROME2",
        "PixelBandwidth": 1400.0,
        "PixelRepresentation": 0,
        "PixelSpacing": [
          1.0957447290421,
          1.0957447290421
        ],
        "ProtocolName": "cmrr_mbep2d_bold_AP_run4",
        "RepetitionTime": 2600.0,
        "Rows": 1316,
        "SAR": 0.05300474019508,
        "SamplesPerPixel": 1,
        "ScanOptions": [
          "PFP",
          "FS"
        ],
        "ScanningSequence": "EP",
        "SequenceName": "epfid2d1_188",
        "SequenceVariant": [
          "SK",
          "SS"
        ],
        "SeriesDescription": "cmrr_mbep2d_bold_AP_run4",
        "SeriesNumber": 13,
        "SeriesTime": "091742.171000",
        "SliceLocation": -45.338603166727,
        "SliceThickness": 1.1000000238419,
        "SmallestImagePixelValue": 0,
        "SoftwareVersions": "syngo MR B17",
        "SpacingBetweenSlices": 1.0999999744075,
        "SpecificCharacterSet": "ISO_IR 100",
        "StudyID": "1",
        "StudyTime": "080807.515000",
        "TransmitCoilName": "32Ch_Head_7T",
        "VariableFlipAngleFlag": "N",
        "WindowCenterWidthExplanation": "Algo1",
        "dBdt": 0.0
      },
      "slices": {}
    },
    "modality": "bold",
    "run_id": 4,
    "session_id": "SES02",
    "subject_id": "S02",
    "task_id": "auditory",
    "time": {
      "samples": {
        "AcquisitionNumber": [
          1,
          2,
          3,
          4,
          5,
          6,
          7,
          8,
          9,
          10,
          11,
          12,
          13,
          14,
          15,
          16,
          17,
          18,
          19,
          20,
          21,
          22,
          23,
          24,
          25,
          26,
          27,
          28,
          29,
          30,
          31,
          32,
          33,
          34,
          35,
          36,
          37,
          38,
          39,
          40,
          41,
          42,
          43,
          44,
          45,
          46,
          47,
          48,
          49,
          50,
          51,
          52,
          53,
          54,
          55,
          56,
          57,
          58,
          59,
          60,
          61,
          62,
          63,
          64,
          65,
          66,
          67,
          68,
          69,
          70,
          71,
          72,
          73,
          74,
          75,
          76,
          77,
          78,
          79,
          80,
          81,
          82,
          83,
          84,
          85,
          86,
          87,
          88,
          89,
          90,
          91,
          92,
          93,
          94,
          95,
          96,
          97,
          98,
          99,
          100,
          101,
          102,
          103,
          104,
          105,
          106,
          107,
          108,
          109,
          110,
          111,
          112,
          113,
          114,
          115,
          116,
          117,
          118,
          119,
          120,
          121,
          122,
          123,
          124,
          125,
          126,
          127,
          128,
          129,
          130,
          131,
          132,
          133,
          134,
          135,
          136,
          137,
          138,
          139,
          140,
          141,
          142,
          143,
          144,
          145,
          146,
          147,
          148,
          149,
          150
        ],
        "AcquisitionTime": [
          "091732.320000",
          "091734.930000",
          "091737.540000",
          "091740.150000",
          "091742.762500",
          "091745.372500",
          "091747.982500",
          "091750.592500",
          "091753.202500",
          "091755.815000",
          "091758.425000",
          "091801.035000",
          "091803.645000",
          "091806.255000",
          "091808.865000",
          "091811.477500",
          "091814.087500",
          "091816.697500",
          "091819.307500",
          "091821.917500",
          "091824.527500",
          "091827.140000",
          "091829.750000",
          "091832.360000",
          "091834.970000",
          "091837.580000",
          "091840.192500",
          "091842.802500",
          "091845.412500",
          "091848.022500",
          "091850.632500",
          "091853.242500",
          "091855.855000",
          "091858.465000",
          "091901.075000",
          "091903.685000",
          "091906.295000",
          "091908.905000",
          "091911.517500",
          "091914.127500",
          "091916.737500",
          "091919.347500",
          "091921.957500",
          "091924.570000",
          "091927.180000",
          "091929.790000",
          "091932.400000",
          "091935.010000",
          "091937.620000",
          "091940.232500",
          "091942.842500",
          "091945.452500",
          "091948.062500",
          "091950.672500",
          "091953.282500",
          "091955.895000",
          "091958.505000",
          "092001.115000",
          "092003.725000",
          "092006.335000",
          "092008.947500",
          "092011.557500",
          "092014.167500",
          "092016.777500",
          "092019.387500",
          "092021.997500",
          "092024.610000",
          "092027.220000",
          "092029.830000",
          "092032.440000",
          "092035.050000",
          "092037.660000",
          "092040.272500",
          "092042.882500",
          "092045.492500",
          "092048.102500",
          "092050.712500",
          "092053.325000",
          "092055.935000",
          "092058.545000",
          "092101.155000",
          "092103.765000",
          "092106.375000",
          "092108.987500",
          "092111.597500",
          "092114.207500",
          "092116.817500",
          "092119.427500",
          "092122.037500",
          "092124.650000",
          "092127.260000",
          "092129.870000",
          "092132.480000",
          "092135.090000",
          "092137.702500",
          "092140.312500",
          "092142.922500",
          "092145.532500",
          "092148.142500",
          "092150.752500",
          "092153.365000",
          "092155.975000",
          "092158.585000",
          "092201.195000",
          "092203.805000",
          "092206.415000",
          "092209.027500",
          "092211.637500",
          "092214.247500",
          "092216.857500",
          "092219.467500",
          "092222.080000",
          "092224.690000",
          "092227.300000",
          "092229.910000",
          "092232.520000",
          "092235.130000",
          "092237.742500",
          "092240.352500",
          "092242.962500",
          "092245.572500",
          "092248.182500",
          "092250.792500",
          "092253.405000",
          "092256.015000",
          "092258.625000",
          "092301.235000",
          "092303.845000",
          "092306.457500",
          "092309.067500",
          "092311.677500",
          "092314.287500",
          "092316.897500",
          "092319.507500",
          "092322.120000",
          "092324.730000",
          "092327.340000",
          "092329.950000",
          "092332.560000",
          "092335.170000",
          "092337.782500",
          "092340.392500",
          "092343.002500",
          "092345.612500",
          "092348.222500",
          "092350.835000",
          "092353.445000",
          "092356.055000",
          "092358.665000",
          "092401.275000"
        ],
        "ContentTime": [
          "091742.187000",
          "091743.171000",
          "091743.171000",
          "091745.171000",
          "091747.671000",
          "091750.171000",
          "091753.171000",
          "091755.671000",
          "091758.171000",
          "091800.671000",
          "091803.671000",
          "091806.171000",
          "091808.671000",
          "091811.171000",
          "091813.671000",
          "091816.171000",
          "091819.171000",
          "091821.671000",
          "091824.171000",
          "091826.671000",
          "091829.171000",
          "091832.171000",
          "091834.671000",
          "091837.171000",
          "091839.671000",
          "091842.171000",
          "091845.171000",
          "091847.671000",
          "091850.171000",
          "091852.671000",
          "091855.171000",
          "091858.171000",
          "091900.671000",
          "091903.171000",
          "091905.671000",
          "091908.171000",
          "091911.171000",
          "091913.671000",
          "091916.171000",
          "091918.671000",
          "091921.171000",
          "091924.171000",
          "091926.671000",
          "091929.171000",
          "091931.671000",
          "091934.171000",
          "091937.171000",
          "091939.671000",
          "091942.171000",
          "091944.671000",
          "091947.171000",
          "091950.171000",
          "091952.671000",
          "091955.171000",
          "091957.671000",
          "092000.171000",
          "092003.171000",
          "092005.671000",
          "092008.171000",
          "092010.671000",
          "092013.171000",
          "092016.171000",
          "092018.671000",
          "092021.171000",
          "092023.671000",
          "092026.171000",
          "092029.171000",
          "092031.671000",
          "092034.171000",
          "092036.671000",
          "092039.171000",
          "092042.171000",
          "092044.671000",
          "092047.171000",
          "092049.671000",
          "092052.171000",
          "092055.171000",
          "092057.671000",
          "092100.171000",
          "092102.671000",
          "092105.171000",
          "092108.171000",
          "092110.671000",
          "092113.171000",
          "092115.671000",
          "092118.171000",
          "092121.171000",
          "092123.671000",
          "092126.171000",
          "092128.671000",
          "092131.171000",
          "092134.171000",
          "092136.671000",
          "092139.171000",
          "092141.671000",
          "092144.171000",
          "092147.171000",
          "092149.671000",
          "092152.171000",
          "092154.671000",
          "092157.171000",
          "092200.171000",
          "092202.671000",
          "092205.171000",
          "092207.671000",
          "092210.171000",
          "092213.171000",
          "092215.671000",
          "092218.171000",
          "092220.671000",
          "092223.171000",
          "092226.171000",
          "092228.671000",
          "092231.171000",
          "092233.671000",
          "092236.171000",
          "092239.171000",
          "092241.671000",
          "092244.171000",
          "092246.671000",
          "092249.171000",
          "092252.171000",
          "092254.671000",
          "092257.171000",
          "092259.671000",
          "092302.171000",
          "092305.171000",
          "092307.671000",
          "092310.171000",
          "092312.671000",
          "092315.171000",
          "092318.171000",
          "092320.671000",
          "092323.171000",
          "092325.671000",
          "092328.171000",
          "092331.171000",
          "092333.671000",
          "092336.171000",
          "092338.687000",
          "092341.171000",
          "092344.171000",
          "092346.671000",
          "092349.171000",
          "092351.671000",
          "092354.171000",
          "092357.171000",
          "092359.671000",
          "092402.171000",
          "092409.531000"
        ],
        "InstanceCreationTime": [
          "091742.187000",
          "091743.171000",
          "091743.171000",
          "091745.171000",
          "091747.671000",
          "091750.171000",
          "091753.171000",
          "091755.671000",
          "091758.171000",
          "091800.671000",
          "091803.671000",
          "091806.171000",
          "091808.671000",
          "091811.171000",
          "091813.671000",
          "091816.171000",
          "091819.171000",
          "091821.671000",
          "091824.171000",
          "091826.671000",
          "091829.171000",
          "091832.171000",
          "091834.671000",
          "091837.171000",
          "091839.671000",
          "091842.171000",
          "091845.171000",
          "091847.671000",
          "091850.171000",
          "091852.671000",
          "091855.171000",
          "091858.171000",
          "091900.671000",
          "091903.171000",
          "091905.671000",
          "091908.171000",
          "091911.171000",
          "091913.671000",
          "091916.171000",
          "091918.671000",
          "091921.171000",
          "091924.171000",
          "091926.671000",
          "091929.171000",
          "091931.671000",
          "091934.171000",
          "091937.171000",
          "091939.671000",
          "091942.171000",
          "091944.671000",
          "091947.171000",
          "091950.171000",
          "091952.671000",
          "091955.171000",
          "091957.671000",
          "092000.171000",
          "092003.171000",
          "092005.671000",
          "092008.171000",
          "092010.671000",
          "092013.171000",
          "092016.171000",
          "092018.671000",
          "092021.171000",
          "092023.671000",
          "092026.171000",
          "092029.171000",
          "092031.671000",
          "092034.171000",
          "092036.671000",
          "092039.171000",
          "092042.171000",
          "092044.671000",
          "092047.171000",
          "092049.671000",
          "092052.171000",
          "092055.171000",
          "092057.671000",
          "092100.171000",
          "092102.671000",
          "092105.171000",
          "092108.171000",
          "092110.671000",
          "092113.171000",
          "092115.671000",
          "092118.171000",
          "092121.171000",
          "092123.671000",
          "092126.171000",
          "092128.671000",
          "092131.171000",
          "092134.171000",
          "092136.671000",
          "092139.171000",
          "092141.671000",
          "092144.171000",
          "092147.171000",
          "092149.671000",
          "092152.171000",
          "092154.671000",
          "092157.171000",
          "092200.171000",
          "092202.671000",
          "092205.171000",
          "092207.671000",
          "092210.171000",
          "092213.171000",
          "092215.671000",
          "092218.171000",
          "092220.671000",
          "092223.171000",
          "092226.171000",
          "092228.671000",
          "092231.171000",
          "092233.671000",
          "092236.171000",
          "092239.171000",
          "092241.671000",
          "092244.171000",
          "092246.671000",
          "092249.171000",
          "092252.171000",
          "092254.671000",
          "092257.171000",
          "092259.671000",
          "092302.171000",
          "092305.171000",
          "092307.671000",
          "092310.171000",
          "092312.671000",
          "092315.171000",
          "092318.171000",
          "092320.671000",
          "092323.171000",
          "092325.671000",
          "092328.171000",
          "092331.171000",
          "092333.671000",
          "092336.171000",
          "092338.687000",
          "092341.171000",
          "092344.171000",
          "092346.671000",
          "092349.171000",
          "092351.671000",
          "092354.171000",
          "092357.171000",
          "092359.671000",
          "092402.171000",
          "092409.531000"
        ],
        "InstanceNumber": [
          1,
          2,
          3,
          4,
          5,
          6,
          7,
          8,
          9,
          10,
          11,
          12,
          13,
          14,
          15,
          16,
          17,
          18,
          19,
          20,
          21,
          22,
          23,
          24,
          25,
          26,
          27,
          28,
          29,
          30,
          31,
          32,
          33,
          34,
          35,
          36,
          37,
          38,
          39,
          40,
          41,
          42,
          43,
          44,
          45,
          46,
          47,
          48,
          49,
          50,
          51,
          52,
          53,
          54,
          55,
          56,
          57,
          58,
          59,
          60,
          61,
          62,
          63,
          64,
          65,
          66,
          67,
          68,
          69,
          70,
          71,
          72,
          73,
          74,
          75,
          76,
          77,
          78,
          79,
          80,
          81,
          82,
          83,
          84,
          85,
          86,
          87,
          88,
          89,
          90,
          91,
          92,
          93,
          94,
          95,
          96,
          97,
          98,
          99,
          100,
          101,
          102,
          103,
          104,
          105,
          106,
          107,
          108,
          109,
          110,
          111,
          112,
          113,
          114,
          115,
          116,
          117,
          118,
          119,
          120,
          121,
          122,
          123,
          124,
          125,
          126,
          127,
          128,
          129,
          130,
          131,
          132,
          133,
          134,
          135,
          136,
          137,
          138,
          139,
          140,
          141,
          142,
          143,
          144,
          145,
          146,
          147,
          148,
          149,
          150
        ],
        "WindowCenter": [
          882.0,
          879.0,
          880.0,
          878.0,
          879.0,
          880.0,
          879.0,
          876.0,
          876.0,
          879.0,
          878.0,
          876.0,
          877.0,
          879.0,
          878.0,
          876.0,
          877.0,
          880.0,
          879.0,
          877.0,
          876.0,
          877.0,
          878.0,
          879.0,
          879.0,
          881.0,
          878.0,
          879.0,
          881.0,
          879.0,
          876.0,
          876.0,
          881.0,
          879.0,
          877.0,
          879.0,
          879.0,
          880.0,
          879.0,
          881.0,
          880.0,
          878.0,
          879.0,
          880.0,
          880.0,
          878.0,
          877.0,
          881.0,
          882.0,
          881.0,
          882.0,
          880.0,
          881.0,
          880.0,
          881.0,
          880.0,
          877.0,
          877.0,
          876.0,
          882.0,
          881.0,
          878.0,
          877.0,
          881.0,
          881.0,
          879.0,
          879.0,
          881.0,
          881.0,
          880.0,
          881.0,
          879.0,
          876.0,
          875.0,
          877.0,
          879.0,
          878.0,
          878.0,
          881.0,
          883.0,
          878.0,
          878.0,
          877.0,
          877.0,
          876.0,
          877.0,
          878.0,
          880.0,
          881.0,
          880.0,
          880.0,
          882.0,
          881.0,
          880.0,
          881.0,
          881.0,
          879.0,
          879.0,
          879.0,
          879.0,
          883.0,
          882.0,
          880.0,
          880.0,
          884.0,
          881.0,
          879.0,
          882.0,
          882.0,
          880.0,
          880.0,
          881.0,
          879.0,
          880.0,
          881.0,
          881.0,
          878.0,
          875.0,
          874.0,
          878.0,
          880.0,
          879.0,
          878.0,
          881.0,
          882.0,
          880.0,
          879.0,
          881.0,
          880.0,
          879.0,
          881.0,
          882.0,
          881.0,
          879.0,
          877.0,
          879.0,
          882.0,
          880.0,
          880.0,
          879.0,
          881.0,
          882.0,
          883.0,
          881.0,
          881.0,
          879.0,
          878.0,
          881.0,
          879.0,
          879.0
        ],
        "WindowWidth": [
          1974.0,
          1966.0,
          1968.0,
          1961.0,
          1965.0,
          1969.0,
          1964.0,
          1956.0,
          1957.0,
          1966.0,
          1962.0,
          1957.0,
          1960.0,
          1965.0,
          1961.0,
          1958.0,
          1961.0,
          1969.0,
          1964.0,
          1958.0,
          1957.0,
          1960.0,
          1962.0,
          1965.0,
          1965.0,
          1970.0,
          1961.0,
          1966.0,
          1969.0,
          1964.0,
          1956.0,
          1957.0,
          1971.0,
          1965.0,
          1960.0,
          1965.0,
          1964.0,
          1968.0,
          1964.0,
          1971.0,
          1966.0,
          1961.0,
          1965.0,
          1968.0,
          1967.0,
          1960.0,
          1959.0,
          1970.0,
          1974.0,
          1972.0,
          1972.0,
          1969.0,
          1971.0,
          1967.0,
          1969.0,
          1968.0,
          1960.0,
          1960.0,
          1957.0,
          1972.0,
          1969.0,
          1962.0,
          1960.0,
          1970.0,
          1971.0,
          1966.0,
          1966.0,
          1970.0,
          1970.0,
          1968.0,
          1969.0,
          1964.0,
          1953.0,
          1952.0,
          1958.0,
          1964.0,
          1962.0,
          1962.0,
          1971.0,
          1976.0,
          1961.0,
          1960.0,
          1960.0,
          1960.0,
          1957.0,
          1958.0,
          1961.0,
          1968.0,
          1970.0,
          1967.0,
          1969.0,
          1973.0,
          1970.0,
          1968.0,
          1971.0,
          1971.0,
          1963.0,
          1964.0,
          1963.0,
          1964.0,
          1975.0,
          1974.0,
          1967.0,
          1969.0,
          1978.0,
          1970.0,
          1965.0,
          1974.0,
          1975.0,
          1968.0,
          1968.0,
          1970.0,
          1966.0,
          1969.0,
          1972.0,
          1970.0,
          1960.0,
          1954.0,
          1951.0,
          1963.0,
          1966.0,
          1963.0,
          1963.0,
          1972.0,
          1972.0,
          1968.0,
          1964.0,
          1970.0,
          1967.0,
          1964.0,
          1971.0,
          1974.0,
          1970.0,
          1963.0,
          1960.0,
          1964.0,
          1972.0,
          1968.0,
          1966.0,
          1966.0,
          1971.0,
          1975.0,
          1976.0,
          1970.0,
          1970.0,
          1966.0,
          1963.0,
          1970.0,
          1962.0,
          1963.0
        ]
      },
      "slices": {}
    }
  },
  "dummy_trs": 0,
  "dvars_nstd": 81.11329553590603,
  "dvars_std": 1.0527462118120805,
  "dvars_vstd": 1.0186379140268451,
  "efc": 0.598782074983957,
  "fber": 173.65357971191406,
  "fd_mean": 0.09416989402657724,
  "fd_num": 9,
  "fd_perc": 6.0,
  "fwhm_avg": 3.1747313017321077,
  "fwhm_x": 2.9561173457177414,
  "fwhm_y": 3.039594817774547,
  "fwhm_z": 3.528481741704036,
  "gcor": 0.00393723,
  "gsr_x": 0.05511234700679779,
  "gsr_y": 0.0074994261376559734,
  "provenance": {
    "md5sum": "04420401c25a89367853092893477d42",
    "settings": {
      "fd_thres": 0.2,
      "testing": false
    },
    "software": "mriqc",
    "version": "23.0.1",
    "webapi_port": null,
    "webapi_url": "https://mriqc.nimh.nih.gov/api/v1"
  },
  "size_t": 150,
  "size_x": 188,
  "size_y": 188,
  "size_z": 46,
  "snr": 1.8524903091971858,
  "spacing_tr": 2.5999999046325684,
  "spacing_x": 1.0957447290420532,
  "spacing_y": 1.0957447290420532,
  "spacing_z": 1.100000023841858,
  "summary_bg_k": 40.41743809708616,
  "summary_bg_mad": 36.06677162784534,
  "summary_bg_mean": 110.72945404052734,
  "summary_bg_median": 61.7400016784668,
  "summary_bg_n": 993580.0,
  "summary_bg_p05": 30.386667251586914,
  "summary_bg_p95": 324.46068725585843,
