{
  "aor": 0.0005134666666666666,
  "aqi": 0.01673918933333333,
  "bids_meta": {
    "AcquisitionMatrixPE": 188,
    "AcquisitionNumber": 1,
    "AcquisitionTime": "09:25:39.342500",
    "BandwidthPerPixelPhaseEncode": 19.46,
    "BaseResolution": 188,
    "CogAtlasID": "TODO",
    "ConversionSoftware": "dcm2niix",
    "ConversionSoftwareVersion": "v1.0.20180606 GCC4.8.5",
    "DelayTime": 1.2,
    "DerivedVendorReportedEchoSpacing": 0.000820013,
    "DeviceSerialNumber": "18930",
    "DwellTime": 1.9e-06,
    "EchoTime": 0.02,
    "EffectiveEchoSpacing": 0.000273338,
    "FlipAngle": 80,
    "ImageComments": "Unaliased_MB2_PE2",
    "ImageOrientationPatientDICOM": [
      0.999755,
      0.015956,
      0.0153145,
      0.0114333,
      0.219867,
      -0.975463
    ],
    "ImageType": [
      "ORIGINAL",
      "PRIMARY",
      "M",
      "MB",
      "ND",
      "MOSAIC"
    ],
    "InPlanePhaseEncodingDirectionDICOM": "COL",
    "InstitutionAddress": "Oxfordlaan_55_Maastricht_12C0A2_Limburg_NL_6229_EV",
    "InstitutionName": "Scannexus",
    "InstitutionalDepartmentName": "MRI_7T",
    "MRAcquisitionType": "2D",
    "MagneticFieldStrength": 6.98,
    "Manufacturer": "Siemens",
    "ManufacturersModelName": "Investigational_Device_7T",
    "Modality": "MR",
    "MultibandAccelerationFactor": 2,
    "ParallelReductionFactorInPlane": 3,
    "PartialFourier": 0.75,
    "PatientPosition": "HFS",
    "PercentPhaseFOV": 100,
    "PhaseEncodingDirection": "j",
    "PhaseEncodingSteps": 141,
    "PhaseResolution": 1,
    "PixelBandwidth": 1400,
    "ProcedureStepDescription": "FeDem_Faruk",
    "ProtocolName": "cmrr_mbep2d_bold_AP_run5",
    "PulseSequenceDetails": "%CustomerSeq%_cmrr_mbep2d_bold",
    "ReceiveCoilName": "32Ch_Head_7T",
    "ReconMatrixPE": 188,
    "RepetitionTime": 2.6,
    "SAR": 0.0526268,
    "ScanOptions": "PFP_FS",
    "ScanningSequence": "EP",
    "SequenceName": "epfid2d1_188",
    "SequenceVariant": "SK_SS",
    "SeriesDescription": "cmrr_mbep2d_bold_AP_run5",
    "SeriesNumber": 14,
    "ShimSetting": [
      110,
      -39,
      352,
      551,
      168,
      265,
      -75,
      84
    ],
    "SliceThickness": 1.1,
    "SliceTiming": [
      0,
      0.7325,
      0.06,
      0.795,
      0.1225,
      0.855,
      0.1825,
      0.915,
      0.245,
      0.9775,
      0.305,
      1.0375,
      0.365,
      1.1,
      0.4275,
      1.16,
      0.4875,
      1.2225,
      0.55,
      1.2825,
      0.61,
      1.3425,
      0.6725,
      0,
      0.7325,
      0.06,
      0.795,
      0.1225,
      0.855,
      0.1825,
      0.915,
      0.245,
      0.9775,
      0.305,
      1.0375,
      0.365,
      1.1,
      0.4275,
      1.16,
      0.4875,
      1.2225,
      0.55,
      1.2825,
      0.61,
      1.3425,
      0.6725
    ],
    "SoftwareVersions": "syngo_MR_B17",
    "SpacingBetweenSlices": 1.1,
    "StationName": "MRC18930",
    "TaskName": "auditory",
    "TotalReadoutTime": 0.0511141,
    "TxRefAmp": 185,
    "dataset": "ds001942",
    "dcmmeta_affine": [
      [
        -1.095476746559143,
        0.012527965009212494,
        0.020824825391173363,
        103.05306243896484
      ],
      [
        -0.017483726143836975,
        0.24091863632202148,
        -1.072939157485962,
        21.79283905029297
      ],
      [
        0.016780756413936615,
        1.0688581466674805,
        0.24159440398216248,
        -118.52979278564453
      ],
      [
        0.0,
        0.0,
        0.0,
        1.0
      ]
    ],
    "dcmmeta_reorient_transform": [
      [
        0.0,
        -1.0,
        0.0,
        187.0
      ],
      [
        1.0,
        0.0,
        0.0,
        0.0
      ],
      [
        0.0,
        0.0,
        1.0,
        0.0
      ],
      [
        0.0,
        0.0,
        0.0,
        1.0
      ]
    ],
    "dcmmeta_shape": [
      188,
      188,
      46,
      150
    ],
    "dcmmeta_slice_dim": 2,
    "dcmmeta_version": 0.6,
    "global": {
      "const": {
        "AcquisitionMatrix": [
          188,
          0,
          0,
          188
        ],
        "AngioFlag": "N",
        "BitsAllocated": 16,
        "BitsStored": 12,
        "Columns": 1316,
        "EchoNumbers": 1,
        "EchoTime": 20.0,
        "EchoTrainLength": 1,
        "FlipAngle": 80.0,
        "HighBit": 11,
        "ImageOrientationPatient": [
          0.99975540619208,
          0.01595602073933,
          0.01531447654586,
          0.01143328775089,
          0.21986748273264,
          -0.9754627465813
        ],
        "ImagePositionPatient": [
          -730.31042959187,
          -212.58355542209,
          674.71833962045
        ],
        "ImageType": [
          "ORIGINAL",
          "PRIMARY",
          "M",
          "MB",
          "ND",
          "MOSAIC"
        ],
        "ImagedNucleus": "1H",
        "ImagingFrequency": 297.205734,
        "InPlanePhaseEncodingDirection": "COL",
        "LargestImagePixelValue": 4095,
        "MRAcquisitionType": "2D",
        "MagneticFieldStrength": 6.98,
        "Manufacturer": "SIEMENS",
        "ManufacturerModelName": "Investigational_Device_7T",
        "Modality": "MR",
        "NumberOfAverages": 1.0,
        "NumberOfPhaseEncodingSteps": 141,
        "PercentPhaseFieldOfView": 100.0,
        "PercentSampling": 100.0,
        "PerformedProcedureStepStartTime": "080807.562000",
        "PhotometricInterpretation": "MONOCHROME2",
        "PixelBandwidth": 1400.0,
        "PixelRepresentation": 0,
        "PixelSpacing": [
          1.0957447290421,
          1.0957447290421
        ],
        "ProtocolName": "cmrr_mbep2d_bold_AP_run5",
        "RepetitionTime": 2600.0,
        "Rows": 1316,
        "SAR": 0.05262684016069,
        "SamplesPerPixel": 1,
        "ScanOptions": [
          "PFP",
          "FS"
        ],
        "ScanningSequence": "EP",
        "SequenceName": "epfid2d1_188",
        "SequenceVariant": [
          "SK",
          "SS"
        ],
        "SeriesDescription": "cmrr_mbep2d_bold_AP_run5",
        "SeriesNumber": 14,
        "SeriesTime": "092549.078000",
        "SliceLocation": -45.338603166727,
        "SliceThickness": 1.1000000238419,
        "SmallestImagePixelValue": 0,
        "SoftwareVersions": "syngo MR B17",
        "SpacingBetweenSlices": 1.0999999744075,
        "SpecificCharacterSet": "ISO_IR 100",
        "StudyID": "1",
        "StudyTime": "080807.515000",
        "TransmitCoilName": "32Ch_Head_7T",
        "VariableFlipAngleFlag": "N",
        "WindowCenterWidthExplanation": "Algo1",
        "dBdt": 0.0
      },
      "slices": {}
    },
    "modality": "bold",
    "run_id": 5,
    "session_id": "SES02",
    "subject_id": "S02",
    "task_id": "auditory",
    "time": {
      "samples": {
        "AcquisitionNumber": [
          1,
          2,
          3,
          4,
          5,
          6,
          7,
          8,
          9,
          10,
          11,
          12,
          13,
          14,
          15,
          16,
          17,
          18,
          19,
          20,
          21,
          22,
          23,
          24,
          25,
          26,
          27,
          28,
          29,
          30,
          31,
          32,
          33,
          34,
          35,
          36,
          37,
          38,
          39,
          40,
          41,
          42,
          43,
          44,
          45,
          46,
          47,
          48,
          49,
          50,
          51,
          52,
          53,
          54,
          55,
          56,
          57,
          58,
          59,
          60,
          61,
          62,
          63,
          64,
          65,
          66,
          67,
          68,
          69,
          70,
          71,
          72,
          73,
          74,
          75,
          76,
          77,
          78,
          79,
          80,
          81,
          82,
          83,
          84,
          85,
          86,
          87,
          88,
          89,
          90,
          91,
          92,
          93,
          94,
          95,
          96,
          97,
          98,
          99,
          100,
          101,
          102,
          103,
          104,
          105,
          106,
          107,
          108,
          109,
          110,
          111,
          112,
          113,
          114,
          115,
          116,
          117,
          118,
          119,
          120,
          121,
          122,
          123,
          124,
          125,
          126,
          127,
          128,
          129,
          130,
          131,
          132,
          133,
          134,
          135,
          136,
          137,
          138,
          139,
          140,
          141,
          142,
          143,
          144,
          145,
          146,
          147,
          148,
          149,
          150
        ],
        "AcquisitionTime": [
          "092539.342500",
          "092541.952500",
          "092544.562500",
          "092547.172500",
          "092549.782500",
          "092552.395000",
          "092555.005000",
          "092557.615000",
          "092600.225000",
          "092602.835000",
          "092605.447500",
          "092608.057500",
          "092610.667500",
          "092613.277500",
          "092615.887500",
          "092618.497500",
          "092621.110000",
          "092623.720000",
          "092626.330000",
          "092628.940000",
          "092631.550000",
          "092634.160000",
          "092636.772500",
          "092639.382500",
          "092641.992500",
          "092644.602500",
          "092647.212500",
          "092649.825000",
          "092652.435000",
          "092655.045000",
          "092657.655000",
          "092700.265000",
          "092702.875000",
          "092705.487500",
          "092708.097500",
          "092710.707500",
          "092713.317500",
          "092715.927500",
          "092718.537500",
          "092721.150000",
          "092723.760000",
          "092726.370000",
          "092728.980000",
          "092731.590000",
          "092734.202500",
          "092736.812500",
          "092739.422500",
          "092742.032500",
          "092744.642500",
          "092747.252500",
          "092749.865000",
          "092752.475000",
          "092755.085000",
          "092757.695000",
          "092800.305000",
          "092802.915000",
          "092805.527500",
          "092808.137500",
          "092810.747500",
          "092813.357500",
          "092815.967500",
          "092818.580000",
          "092821.190000",
          "092823.800000",
          "092826.410000",
          "092829.020000",
          "092831.630000",
          "092834.242500",
          "092836.852500",
          "092839.462500",
          "092842.072500",
          "092844.682500",
          "092847.292500",
          "092849.905000",
          "092852.515000",
          "092855.125000",
          "092857.735000",
          "092900.345000",
          "092902.957500",
          "092905.567500",
          "092908.177500",
          "092910.787500",
          "092913.397500",
          "092916.007500",
          "092918.620000",
          "092921.230000",
          "092923.840000",
          "092926.450000",
          "092929.060000",
          "092931.672500",
          "092934.282500",
          "092936.892500",
          "092939.502500",
          "092942.112500",
          "092944.722500",
          "092947.335000",
          "092949.945000",
          "092952.555000",
          "092955.165000",
          "092957.775000",
          "093000.385000",
          "093002.997500",
          "093005.607500",
          "093008.217500",
          "093010.827500",
          "093013.437500",
          "093016.050000",
          "093018.660000",
          "093021.270000",
          "093023.880000",
          "093026.490000",
          "093029.100000",
          "093031.712500",
          "093034.322500",
          "093036.932500",
          "093039.542500",
          "093042.152500",
          "093044.762500",
          "093047.375000",
          "093049.985000",
          "093052.595000",
          "093055.205000",
          "093057.815000",
          "093100.427500",
          "093103.037500",
          "093105.647500",
          "093108.257500",
          "093110.867500",
          "093113.477500",
          "093116.090000",
          "093118.700000",
          "093121.310000",
          "093123.920000",
          "093126.530000",
          "093129.140000",
          "093131.752500",
          "093134.362500",
          "093136.972500",
          "093139.582500",
          "093142.192500",
          "093144.805000",
          "093147.415000",
          "093150.025000",
          "093152.635000",
          "093155.245000",
          "093157.855000",
          "093200.467500",
          "093203.077500",
          "093205.687500",
          "093208.297500"
        ],
        "ContentTime": [
          "092549.078000",
          "092550.078000",
          "092550.078000",
          "092552.078000",
          "092554.578000",
          "092557.078000",
          "092600.078000",
          "092602.578000",
          "092605.078000",
          "092607.578000",
          "092610.078000",
          "092613.078000",
          "092615.578000",
          "092618.078000",
          "092620.578000",
          "092623.078000",
          "092626.078000",
          "092628.578000",
          "092631.078000",
          "092633.578000",
          "092636.078000",
          "092639.078000",
          "092641.578000",
          "092644.078000",
          "092646.578000",
          "092649.078000",
          "092652.078000",
          "092654.578000",
          "092657.078000",
          "092659.578000",
          "092702.078000",
          "092705.078000",
          "092707.578000",
          "092710.078000",
          "092712.578000",
          "092715.078000",
          "092718.078000",
          "092720.578000",
          "092723.078000",
          "092725.578000",
          "092728.078000",
          "092731.078000",
          "092733.578000",
          "092736.078000",
          "092738.578000",
          "092741.078000",
          "092744.078000",
          "092746.578000",
          "092749.078000",
          "092751.578000",
          "092754.078000",
          "092757.078000",
          "092759.578000",
          "092802.078000",
          "092804.578000",
          "092807.078000",
          "092810.078000",
          "092812.578000",
          "092815.078000",
          "092817.578000",
          "092820.078000",
          "092823.078000",
          "092825.578000",
          "092828.078000",
          "092830.578000",
          "092833.578000",
          "092836.078000",
          "092838.578000",
          "092841.078000",
          "092843.578000",
          "092846.078000",
          "092849.078000",
          "092851.578000",
          "092854.078000",
          "092856.578000",
          "092859.078000",
          "092902.078000",
          "092904.578000",
          "092907.078000",
          "092909.578000",
          "092912.078000",
          "092915.078000",
          "092917.578000",
          "092920.078000",
          "092922.578000",
          "092925.078000",
          "092928.078000",
          "092930.578000",
          "092933.078000",
          "092935.578000",
          "092938.078000",
          "092941.078000",
          "092943.578000",
          "092946.078000",
          "092948.578000",
          "092951.078000",
          "092954.078000",
          "092956.578000",
          "092959.078000",
          "093001.578000",
          "093004.078000",
          "093007.078000",
          "093009.578000",
          "093012.078000",
          "093014.578000",
          "093017.078000",
          "093020.078000",
          "093022.578000",
          "093025.078000",
          "093027.578000",
          "093030.078000",
          "093033.078000",
          "093035.578000",
          "093038.078000",
          "093040.578000",
          "093043.578000",
          "093046.078000",
          "093048.578000",
          "093051.078000",
          "093053.578000",
          "093056.078000",
          "093059.078000",
          "093101.578000",
          "093104.078000",
          "093106.578000",
          "093109.078000",
          "093112.078000",
          "093114.578000",
          "093117.078000",
          "093119.578000",
          "093122.078000",
          "093125.078000",
          "093127.578000",
          "093130.078000",
          "093132.578000",
          "093135.078000",
          "093138.078000",
          "093140.578000",
          "093143.078000",
          "093145.578000",
          "093148.578000",
          "093151.078000",
          "093153.578000",
          "093156.078000",
          "093158.578000",
          "093201.078000",
          "093204.078000",
          "093206.578000",
          "093209.078000",
          "093216.437000"
        ],
        "InstanceCreationTime": [
          "092549.078000",
          "092550.078000",
          "092550.078000",
          "092552.078000",
          "092554.578000",
          "092557.078000",
          "092600.078000",
          "092602.578000",
          "092605.078000",
          "092607.578000",
          "092610.078000",
          "092613.078000",
          "092615.578000",
          "092618.078000",
          "092620.578000",
          "092623.078000",
          "092626.078000",
          "092628.578000",
          "092631.078000",
          "092633.578000",
          "092636.078000",
          "092639.078000",
          "092641.578000",
          "092644.078000",
          "092646.578000",
          "092649.078000",
          "092652.078000",
          "092654.578000",
          "092657.078000",
          "092659.578000",
          "092702.078000",
          "092705.078000",
          "092707.578000",
          "092710.078000",
          "092712.578000",
          "092715.078000",
          "092718.078000",
          "092720.578000",
          "092723.078000",
          "092725.578000",
          "092728.078000",
          "092731.078000",
          "092733.578000",
          "092736.078000",
          "092738.578000",
          "092741.078000",
          "092744.078000",
          "092746.578000",
          "092749.078000",
          "092751.578000",
          "092754.078000",
          "092757.078000",
          "092759.578000",
          "092802.078000",
          "092804.578000",
          "092807.078000",
          "092810.078000",
          "092812.578000",
          "092815.078000",
          "092817.578000",
          "092820.078000",
          "092823.078000",
          "092825.578000",
          "092828.078000",
          "092830.578000",
          "092833.578000",
          "092836.078000",
          "092838.578000",
          "092841.078000",
          "092843.578000",
          "092846.078000",
          "092849.078000",
          "092851.578000",
          "092854.078000",
          "092856.578000",
          "092859.078000",
          "092902.078000",
          "092904.578000",
          "092907.078000",
          "092909.578000",
          "092912.078000",
          "092915.078000",
          "092917.578000",
          "092920.078000",
          "092922.578000",
          "092925.078000",
          "092928.078000",
          "092930.578000",
          "092933.078000",
          "092935.578000",
          "092938.078000",
          "092941.078000",
          "092943.578000",
          "092946.078000",
          "092948.578000",
          "092951.078000",
          "092954.078000",
          "092956.578000",
          "092959.078000",
          "093001.578000",
          "093004.078000",
          "093007.078000",
          "093009.578000",
          "093012.078000",
          "093014.578000",
          "093017.078000",
          "093020.078000",
          "093022.578000",
          "093025.078000",
          "093027.578000",
          "093030.078000",
          "093033.078000",
          "093035.578000",
          "093038.078000",
          "093040.578000",
          "093043.578000",
          "093046.078000",
          "093048.578000",
          "093051.078000",
          "093053.578000",
          "093056.078000",
          "093059.078000",
          "093101.578000",
          "093104.078000",
          "093106.578000",
          "093109.078000",
          "093112.078000",
          "093114.578000",
          "093117.078000",
          "093119.578000",
          "093122.078000",
          "093125.078000",
          "093127.578000",
          "093130.078000",
          "093132.578000",
          "093135.078000",
          "093138.078000",
          "093140.578000",
          "093143.078000",
          "093145.578000",
          "093148.578000",
          "093151.078000",
          "093153.578000",
          "093156.078000",
          "093158.578000",
          "093201.078000",
          "093204.078000",
          "093206.578000",
          "093209.078000",
          "093216.437000"
        ],
        "InstanceNumber": [
          1,
          2,
          3,
          4,
          5,
          6,
          7,
          8,
          9,
          10,
          11,
          12,
          13,
          14,
          15,
          16,
          17,
          18,
          19,
          20,
          21,
          22,
          23,
          24,
          25,
          26,
          27,
          28,
          29,
          30,
          31,
          32,
          33,
          34,
          35,
          36,
          37,
          38,
          39,
          40,
          41,
          42,
          43,
          44,
          45,
          46,
          47,
          48,
          49,
          50,
          51,
          52,
          53,
          54,
          55,
          56,
          57,
          58,
          59,
          60,
          61,
          62,
          63,
          64,
          65,
          66,
          67,
          68,
          69,
          70,
          71,
          72,
          73,
          74,
          75,
          76,
          77,
          78,
          79,
          80,
          81,
          82,
          83,
          84,
          85,
          86,
          87,
          88,
          89,
          90,
          91,
          92,
          93,
          94,
          95,
          96,
          97,
          98,
          99,
          100,
          101,
          102,
          103,
          104,
          105,
          106,
          107,
          108,
          109,
          110,
          111,
          112,
          113,
          114,
          115,
          116,
          117,
          118,
          119,
          120,
          121,
          122,
          123,
          124,
          125,
          126,
          127,
          128,
          129,
          130,
          131,
          132,
          133,
          134,
          135,
          136,
          137,
          138,
          139,
          140,
          141,
          142,
          143,
          144,
          145,
          146,
          147,
          148,
          149,
          150
        ],
        "WindowCenter": [
          880.0,
          878.0,
          879.0,
          878.0,
          878.0,
          879.0,
          881.0,
          883.0,
          879.0,
          877.0,
          879.0,
          880.0,
          878.0,
          879.0,
          879.0,
          880.0,
          880.0,
          878.0,
          878.0,
          880.0,
          880.0,
          877.0,
          876.0,
          876.0,
          879.0,
          877.0,
          876.0,
          878.0,
          881.0,
          879.0,
          877.0,
          877.0,
          876.0,
          877.0,
          876.0,
          876.0,
          879.0,
          881.0,
          881.0,
          880.0,
          876.0,
          876.0,
          877.0,
          879.0,
          879.0,
          881.0,
          881.0,
          881.0,
          880.0,
          881.0,
          878.0,
          876.0,
          878.0,
          878.0,
          878.0,
          879.0,
          878.0,
          879.0,
          880.0,
          878.0,
          879.0,
          877.0,
          876.0,
          875.0,
          872.0,
          874.0,
          877.0,
          879.0,
          879.0,
          880.0,
          879.0,
          875.0,
          875.0,
          877.0,
          878.0,
          878.0,
          882.0,
          881.0,
          879.0,
          880.0,
          880.0,
          881.0,
          877.0,
          876.0,
          872.0,
          873.0,
          874.0,
          874.0,
          876.0,
          878.0,
          881.0,
          881.0,
          882.0,
          881.0,
          882.0,
          880.0,
          878.0,
          878.0,
          879.0,
          880.0,
          882.0,
          883.0,
          882.0,
          883.0,
          881.0,
          880.0,
          882.0,
          883.0,
          881.0,
          880.0,
          881.0,
          880.0,
          880.0,
          882.0,
          881.0,
          879.0,
          879.0,
          879.0,
          878.0,
          880.0,
          878.0,
          878.0,
          879.0,
          879.0,
          880.0,
          878.0,
          878.0,
          880.0,
          878.0,
          878.0,
          878.0,
          876.0,
          876.0,
          877.0,
          878.0,
          878.0,
          877.0,
          878.0,
          879.0,
          877.0,
          878.0,
          877.0,
          880.0,
          879.0,
          879.0,
          881.0,
          881.0,
          879.0,
          878.0,
          880.0
        ],
        "WindowWidth": [
          1970.0,
          1963.0,
          1966.0,
          1962.0,
          1962.0,
          1967.0,
          1971.0,
          1977.0,
          1965.0,
          1960.0,
          1965.0,
          1966.0,
          1963.0,
          1965.0,
          1967.0,
          1969.0,
          1967.0,
          1961.0,
          1964.0,
          1967.0,
          1967.0,
          1959.0,
          1956.0,
          1956.0,
          1965.0,
          1957.0,
          1955.0,
          1962.0,
          1971.0,
          1965.0,
          1958.0,
          1958.0,
          1955.0,
          1959.0,
          1955.0,
          1958.0,
          1965.0,
          1972.0,
          1971.0,
          1965.0,
          1956.0,
          1956.0,
          1959.0,
          1964.0,
          1965.0,
          1970.0,
          1972.0,
          1970.0,
          1968.0,
          1970.0,
          1960.0,
          1956.0,
          1961.0,
          1961.0,
          1963.0,
          1964.0,
          1963.0,
          1967.0,
          1966.0,
          1961.0,
          1964.0,
          1958.0,
          1954.0,
          1951.0,
          1944.0,
          1951.0,
          1961.0,
          1965.0,
          1966.0,
          1969.0,
          1963.0,
          1953.0,
          1953.0,
          1958.0,
          1961.0,
          1962.0,
          1973.0,
          1971.0,
          1966.0,
          1967.0,
          1969.0,
          1969.0,
          1959.0,
          1955.0,
          1944.0,
          1946.0,
          1951.0,
          1951.0,
          1955.0,
          1962.0,
          1971.0,
          1971.0,
          1972.0,
          1970.0,
          1971.0,
          1964.0,
          1961.0,
          1962.0,
          1965.0,
          1967.0,
          1971.0,
          1974.0,
          1971.0,
          1975.0,
          1970.0,
          1966.0,
          1973.0,
          1975.0,
          1970.0,
          1965.0,
          1969.0,
          1968.0,
          1967.0,
          1973.0,
          1970.0,
          1963.0,
          1964.0,
          1964.0,
          1962.0,
          1968.0,
          1962.0,
          1961.0,
          1964.0,
          1966.0,
          1967.0,
          1963.0,
          1963.0,
          1967.0,
          1961.0,
          1963.0,
          1961.0,
          1955.0,
          1954.0,
          1959.0,
          1963.0,
          1961.0,
          1959.0,
          1962.0,
          1963.0,
          1960.0,
          1960.0,
          1961.0,
          1968.0,
          1966.0,
          1966.0,
          1971.0,
          1969.0,
          1964.0,
          1963.0,
          1966.0
        ]
      },
      "slices": {}
    }
  },
  "dummy_trs": 0,
  "dvars_nstd": 80.71228585449659,
  "dvars_std": 1.0313192957718122,
  "dvars_vstd": 1.004482026979866,
  "efc": 0.5997243873103433,
  "fber": 172.40521240234375,
  "fd_mean": 0.08384745839543194,
  "fd_num": 4,
  "fd_perc": 2.6666666666666665,
  "fwhm_avg": 3.2139101001803616,
  "fwhm_x": 2.9789967621872298,
  "fwhm_y": 3.0637245254511836,
  "fwhm_z": 3.5990090129026715,
  "gcor": 0.00406653,
  "gsr_x": 0.05640900880098343,
  "gsr_y": 0.006512404419481754,
  "provenance": {
    "md5sum": "679a363599512a67d6bd9c6d12a6feb1",
    "settings": {
      "fd_thres": 0.2,
      "testing": false
    },
    "software": "mriqc",
    "version": "22.0.0rc1",
    "webapi_port": null,
    "webapi_url": "https://mriqc.nimh.nih.gov/api/v1"
  },
  "size_t": 150,
  "size_x": 188,
  "size_y": 188,
  "size_z": 46,
  "snr": 1.8589483532322455,
  "spacing_tr": 2.5999999046325684,
  "spacing_x": 1.0957447290420532,
  "spacing_y": 1.0957447290420532,
  "spacing_z": 1.100000023841858,
  "summary_bg_k": 39.418318714507556,
  "summary_bg_mad": 36.35340707643879,
  "summary_bg_mean": 110.9246826171875,
  "summary_bg_median": 61.95333480834961,
  "summary_bg_n": 992965.0,
  "summary_bg_p05": 30.46000099182129,
