{
  "aor": 0.0005700666666666667,
  "aqi": 0.011137143333333332,
  "bids_meta": {
    "AcquisitionMatrixPE": 188,
    "AcquisitionNumber": 1,
    "AcquisitionTime": "10:26:51.147500",
    "BandwidthPerPixelPhaseEncode": 19.46,
    "BaseResolution": 188,
    "CogAtlasID": "TODO",
    "ConversionSoftware": "dcm2niix",
    "ConversionSoftwareVersion": "v1.0.20180606 GCC4.8.5",
    "DelayTime": 1.2,
    "DerivedVendorReportedEchoSpacing": 0.000820013,
    "DeviceSerialNumber": "18930",
    "DwellTime": 1.9e-06,
    "EchoTime": 0.02,
    "EffectiveEchoSpacing": 0.000273338,
    "FlipAngle": 80,
    "ImageComments": "Unaliased_MB2_PE2",
    "ImageOrientationPatientDICOM": [
      0.999755,
      0.015956,
      0.0153145,
      0.0114333,
      0.219867,
      -0.975463
    ],
    "ImageType": [
      "ORIGINAL",
      "PRIMARY",
      "M",
      "MB",
      "ND",
      "MOSAIC"
    ],
    "InPlanePhaseEncodingDirectionDICOM": "COL",
    "InstitutionAddress": "Oxfordlaan_55_Maastricht_12C0A2_Limburg_NL_6229_EV",
    "InstitutionName": "Scannexus",
    "InstitutionalDepartmentName": "MRI_7T",
    "MRAcquisitionType": "2D",
    "MagneticFieldStrength": 6.98,
    "Manufacturer": "Siemens",
    "ManufacturersModelName": "Investigational_Device_7T",
    "Modality": "MR",
    "MultibandAccelerationFactor": 2,
    "ParallelReductionFactorInPlane": 3,
    "PartialFourier": 0.75,
    "PatientPosition": "HFS",
    "PercentPhaseFOV": 100,
    "PhaseEncodingDirection": "j",
    "PhaseEncodingSteps": 141,
    "PhaseResolution": 1,
    "PixelBandwidth": 1400,
    "ProcedureStepDescription": "FeDem_Faruk",
    "ProtocolName": "cmrr_mbep2d_bold_AP_run12",
    "PulseSequenceDetails": "%CustomerSeq%_cmrr_mbep2d_bold",
    "ReceiveCoilName": "32Ch_Head_7T",
    "ReconMatrixPE": 188,
    "RepetitionTime": 2.6,
    "SAR": 0.0524404,
    "ScanOptions": "PFP_FS",
    "ScanningSequence": "EP",
    "SequenceName": "epfid2d1_188",
    "SequenceVariant": "SK_SS",
    "SeriesDescription": "cmrr_mbep2d_bold_AP_run12",
    "SeriesNumber": 23,
    "ShimSetting": [
      110,
      -39,
      352,
      551,
      168,
      265,
      -75,
      84
    ],
    "SliceThickness": 1.1,
    "SliceTiming": [
      0,
      0.7325,
      0.06,
      0.795,
      0.1225,
      0.855,
      0.1825,
      0.9175,
      0.245,
      0.9775,
      0.305,
      1.04,
      0.3675,
      1.1,
      0.4275,
      1.16,
      0.49,
      1.2225,
      0.55,
      1.2825,
      0.61,
      1.345,
      0.6725,
      0,
      0.7325,
      0.06,
      0.795,
      0.1225,
      0.855,
      0.1825,
      0.9175,
      0.245,
      0.9775,
      0.305,
      1.04,
      0.3675,
      1.1,
      0.4275,
      1.16,
      0.49,
      1.2225,
      0.55,
      1.2825,
      0.61,
      1.345,
      0.6725
    ],
    "SoftwareVersions": "syngo_MR_B17",
    "SpacingBetweenSlices": 1.1,
    "StationName": "MRC18930",
    "TaskName": "auditory",
    "TotalReadoutTime": 0.0511141,
    "TxRefAmp": 185,
    "dataset": "ds001942",
    "dcmmeta_affine": [
      [
        -1.095476746559143,
        0.012527965009212494,
        0.020824825391173363,
        103.05306243896484
      ],
      [
        -0.017483726143836975,
        0.24091863632202148,
        -1.072939157485962,
        21.79283905029297
      ],
      [
        0.016780756413936615,
        1.0688581466674805,
        0.24159440398216248,
        -118.52979278564453
      ],
      [
        0.0,
        0.0,
        0.0,
        1.0
      ]
    ],
    "dcmmeta_reorient_transform": [
      [
        0.0,
        -1.0,
        0.0,
        187.0
      ],
      [
        1.0,
        0.0,
        0.0,
        0.0
      ],
      [
        0.0,
        0.0,
        1.0,
        0.0
      ],
      [
        0.0,
        0.0,
        0.0,
        1.0
      ]
    ],
    "dcmmeta_shape": [
      188,
      188,
      46,
      150
    ],
    "dcmmeta_slice_dim": 2,
    "dcmmeta_version": 0.6,
    "global": {
      "const": {
        "AcquisitionMatrix": [
          188,
          0,
          0,
          188
        ],
        "AngioFlag": "N",
        "BitsAllocated": 16,
        "BitsStored": 12,
        "Columns": 1316,
        "EchoNumbers": 1,
        "EchoTime": 20.0,
        "EchoTrainLength": 1,
        "FlipAngle": 80.0,
        "HighBit": 11,
        "ImageOrientationPatient": [
          0.99975540619208,
          0.01595602073933,
          0.01531447654586,
          0.01143328775089,
          0.21986748273264,
          -0.9754627465813
        ],
        "ImagePositionPatient": [
          -730.31042959187,
          -212.58355542209,
          674.71833962045
        ],
        "ImageType": [
          "ORIGINAL",
          "PRIMARY",
          "M",
          "MB",
          "ND",
          "MOSAIC"
        ],
        "ImagedNucleus": "1H",
        "ImagingFrequency": 297.205757,
        "InPlanePhaseEncodingDirection": "COL",
        "LargestImagePixelValue": 4095,
        "MRAcquisitionType": "2D",
        "MagneticFieldStrength": 6.98,
        "Manufacturer": "SIEMENS",
        "ManufacturerModelName": "Investigational_Device_7T",
        "Modality": "MR",
        "NumberOfAverages": 1.0,
        "NumberOfPhaseEncodingSteps": 141,
        "PercentPhaseFieldOfView": 100.0,
        "PercentSampling": 100.0,
        "PerformedProcedureStepStartTime": "080807.562000",
        "PhotometricInterpretation": "MONOCHROME2",
        "PixelBandwidth": 1400.0,
        "PixelRepresentation": 0,
        "PixelSpacing": [
          1.0957447290421,
          1.0957447290421
        ],
        "ProtocolName": "cmrr_mbep2d_bold_AP_run12",
        "RepetitionTime": 2600.0,
        "Rows": 1316,
        "SAR": 0.05244037331376,
        "SamplesPerPixel": 1,
        "ScanOptions": [
          "PFP",
          "FS"
        ],
        "ScanningSequence": "EP",
        "SequenceName": "epfid2d1_188",
        "SequenceVariant": [
          "SK",
          "SS"
        ],
        "SeriesDescription": "cmrr_mbep2d_bold_AP_run12",
        "SeriesNumber": 23,
        "SeriesTime": "102701.421000",
        "SliceLocation": -45.338603166727,
        "SliceThickness": 1.1000000238419,
        "SmallestImagePixelValue": 0,
        "SoftwareVersions": "syngo MR B17",
        "SpacingBetweenSlices": 1.0999999744075,
        "SpecificCharacterSet": "ISO_IR 100",
        "StudyID": "1",
        "StudyTime": "080807.515000",
        "TransmitCoilName": "32Ch_Head_7T",
        "VariableFlipAngleFlag": "N",
        "WindowCenterWidthExplanation": "Algo1",
        "dBdt": 0.0
      },
      "slices": {}
    },
    "modality": "bold",
    "run_id": 12,
    "session_id": "SES02",
    "subject_id": "S02",
    "task_id": "auditory",
    "time": {
      "samples": {
        "AcquisitionNumber": [
          1,
          2,
          3,
          4,
          5,
          6,
          7,
          8,
          9,
          10,
          11,
          12,
          13,
          14,
          15,
          16,
          17,
          18,
          19,
          20,
          21,
          22,
          23,
          24,
          25,
          26,
          27,
          28,
          29,
          30,
          31,
          32,
          33,
          34,
          35,
          36,
          37,
          38,
          39,
          40,
          41,
          42,
          43,
          44,
          45,
          46,
          47,
          48,
          49,
          50,
          51,
          52,
          53,
          54,
          55,
          56,
          57,
          58,
          59,
          60,
          61,
          62,
          63,
          64,
          65,
          66,
          67,
          68,
          69,
          70,
          71,
          72,
          73,
          74,
          75,
          76,
          77,
          78,
          79,
          80,
          81,
          82,
          83,
          84,
          85,
          86,
          87,
          88,
          89,
          90,
          91,
          92,
          93,
          94,
          95,
          96,
          97,
          98,
          99,
          100,
          101,
          102,
          103,
          104,
          105,
          106,
          107,
          108,
          109,
          110,
          111,
          112,
          113,
          114,
          115,
          116,
          117,
          118,
          119,
          120,
          121,
          122,
          123,
          124,
          125,
          126,
          127,
          128,
          129,
          130,
          131,
          132,
          133,
          134,
          135,
          136,
          137,
          138,
          139,
          140,
          141,
          142,
          143,
          144,
          145,
          146,
          147,
          148,
          149,
          150
        ],
        "AcquisitionTime": [
          "102651.147500",
          "102653.757500",
          "102656.367500",
          "102658.980000",
          "102701.590000",
          "102704.200000",
          "102706.810000",
          "102709.420000",
          "102712.030000",
          "102714.642500",
          "102717.252500",
          "102719.862500",
          "102722.472500",
          "102725.082500",
          "102727.692500",
          "102730.305000",
          "102732.915000",
          "102735.525000",
          "102738.135000",
          "102740.745000",
          "102743.357500",
          "102745.967500",
          "102748.577500",
          "102751.187500",
          "102753.797500",
          "102756.407500",
          "102759.020000",
          "102801.630000",
          "102804.240000",
          "102806.850000",
          "102809.460000",
          "102812.070000",
          "102814.682500",
          "102817.292500",
          "102819.902500",
          "102822.512500",
          "102825.122500",
          "102827.735000",
          "102830.345000",
          "102832.955000",
          "102835.565000",
          "102838.175000",
          "102840.785000",
          "102843.397500",
          "102846.007500",
          "102848.617500",
          "102851.227500",
          "102853.837500",
          "102856.447500",
          "102859.060000",
          "102901.670000",
          "102904.280000",
          "102906.890000",
          "102909.500000",
          "102912.112500",
          "102914.722500",
          "102917.332500",
          "102919.942500",
          "102922.552500",
          "102925.162500",
          "102927.775000",
          "102930.385000",
          "102932.995000",
          "102935.605000",
          "102938.215000",
          "102940.827500",
          "102943.437500",
          "102946.047500",
          "102948.657500",
          "102951.267500",
          "102953.877500",
          "102956.490000",
          "102959.100000",
          "103001.710000",
          "103004.320000",
          "103006.930000",
          "103009.540000",
          "103012.152500",
          "103014.762500",
          "103017.372500",
          "103019.982500",
          "103022.592500",
          "103025.205000",
          "103027.815000",
          "103030.425000",
          "103033.035000",
          "103035.645000",
          "103038.255000",
          "103040.867500",
          "103043.477500",
          "103046.087500",
          "103048.697500",
          "103051.307500",
          "103053.917500",
          "103056.530000",
          "103059.140000",
          "103101.750000",
          "103104.360000",
          "103106.970000",
          "103109.582500",
          "103112.192500",
          "103114.802500",
          "103117.412500",
          "103120.022500",
          "103122.632500",
          "103125.245000",
          "103127.855000",
          "103130.465000",
          "103133.075000",
          "103135.685000",
          "103138.295000",
          "103140.907500",
          "103143.517500",
          "103146.127500",
          "103148.737500",
          "103151.347500",
          "103153.960000",
          "103156.570000",
          "103159.180000",
          "103201.790000",
          "103204.400000",
          "103207.010000",
          "103209.622500",
          "103212.232500",
          "103214.842500",
          "103217.452500",
          "103220.062500",
          "103222.672500",
          "103225.285000",
          "103227.895000",
          "103230.505000",
          "103233.115000",
          "103235.725000",
          "103238.337500",
          "103240.947500",
          "103243.557500",
          "103246.167500",
          "103248.777500",
          "103251.387500",
          "103254.000000",
          "103256.610000",
          "103259.220000",
          "103301.830000",
          "103304.440000",
          "103307.050000",
          "103309.662500",
          "103312.272500",
          "103314.882500",
          "103317.492500",
          "103320.102500"
        ],
        "ContentTime": [
          "102701.421000",
          "102701.421000",
          "102701.921000",
          "102704.421000",
          "102706.921000",
          "102709.421000",
          "102712.421000",
          "102714.921000",
          "102717.421000",
          "102719.921000",
          "102722.421000",
          "102725.421000",
          "102727.921000",
          "102730.421000",
          "102732.921000",
          "102735.421000",
          "102738.421000",
          "102740.921000",
          "102743.421000",
          "102745.921000",
          "102748.421000",
          "102751.421000",
          "102753.921000",
          "102756.421000",
          "102758.921000",
          "102801.421000",
          "102804.421000",
          "102806.921000",
          "102809.421000",
          "102811.921000",
          "102814.421000",
          "102817.421000",
          "102819.921000",
          "102822.421000",
          "102824.921000",
          "102827.421000",
          "102830.421000",
          "102832.921000",
          "102835.421000",
          "102837.921000",
          "102840.421000",
          "102843.421000",
          "102845.921000",
          "102848.421000",
          "102850.921000",
          "102853.421000",
          "102856.421000",
          "102858.921000",
          "102901.421000",
          "102903.921000",
          "102906.421000",
          "102909.421000",
          "102911.921000",
          "102914.421000",
          "102916.921000",
          "102919.421000",
          "102922.421000",
          "102924.921000",
          "102927.421000",
          "102929.921000",
          "102932.421000",
          "102935.421000",
          "102937.921000",
          "102940.421000",
          "102942.921000",
          "102945.421000",
          "102948.421000",
          "102950.921000",
          "102953.421000",
          "102955.921000",
          "102958.421000",
          "103001.421000",
          "103003.921000",
          "103006.421000",
          "103008.921000",
          "103011.421000",
          "103014.421000",
          "103016.921000",
          "103019.421000",
          "103021.921000",
          "103024.421000",
          "103027.421000",
          "103029.921000",
          "103032.421000",
          "103034.921000",
          "103037.421000",
          "103040.421000",
          "103042.921000",
          "103045.421000",
          "103047.921000",
          "103050.421000",
          "103053.421000",
          "103055.921000",
          "103058.421000",
          "103100.921000",
          "103103.421000",
          "103106.421000",
          "103108.921000",
          "103111.421000",
          "103113.921000",
          "103116.421000",
          "103119.421000",
          "103121.921000",
          "103124.421000",
          "103126.921000",
          "103129.421000",
          "103132.421000",
          "103134.921000",
          "103137.421000",
          "103139.921000",
          "103142.421000",
          "103145.421000",
          "103147.921000",
          "103150.421000",
          "103152.921000",
          "103155.421000",
          "103158.421000",
          "103200.921000",
          "103203.421000",
          "103205.921000",
          "103208.421000",
          "103211.421000",
          "103213.921000",
          "103216.421000",
          "103218.921000",
          "103221.421000",
          "103224.421000",
          "103226.921000",
          "103229.421000",
          "103231.921000",
          "103234.421000",
          "103237.421000",
          "103239.921000",
          "103242.421000",
          "103244.921000",
          "103247.421000",
          "103250.421000",
          "103252.921000",
          "103255.421000",
          "103257.921000",
          "103300.421000",
          "103303.421000",
          "103305.921000",
          "103308.421000",
          "103310.921000",
          "103313.421000",
          "103316.421000",
          "103318.921000",
          "103321.421000",
          "103328.781000"
        ],
        "InstanceCreationTime": [
          "102701.421000",
          "102701.421000",
          "102701.921000",
          "102704.421000",
          "102706.921000",
          "102709.421000",
          "102712.421000",
          "102714.921000",
          "102717.421000",
          "102719.921000",
          "102722.421000",
          "102725.421000",
          "102727.921000",
          "102730.421000",
          "102732.921000",
          "102735.421000",
          "102738.421000",
          "102740.921000",
          "102743.421000",
          "102745.921000",
          "102748.421000",
          "102751.421000",
          "102753.921000",
          "102756.421000",
          "102758.921000",
          "102801.421000",
          "102804.421000",
          "102806.921000",
          "102809.421000",
          "102811.921000",
          "102814.421000",
          "102817.421000",
          "102819.921000",
          "102822.421000",
          "102824.921000",
          "102827.421000",
          "102830.421000",
          "102832.921000",
          "102835.421000",
          "102837.921000",
          "102840.421000",
          "102843.421000",
          "102845.921000",
          "102848.421000",
          "102850.921000",
          "102853.421000",
          "102856.421000",
          "102858.921000",
          "102901.421000",
          "102903.921000",
          "102906.421000",
          "102909.421000",
          "102911.921000",
          "102914.421000",
          "102916.921000",
          "102919.421000",
          "102922.421000",
          "102924.921000",
          "102927.421000",
          "102929.921000",
          "102932.421000",
          "102935.421000",
          "102937.921000",
          "102940.421000",
          "102942.921000",
          "102945.421000",
          "102948.421000",
          "102950.921000",
          "102953.421000",
          "102955.921000",
          "102958.421000",
          "103001.421000",
          "103003.921000",
          "103006.421000",
          "103008.921000",
          "103011.421000",
          "103014.421000",
          "103016.921000",
          "103019.421000",
          "103021.921000",
          "103024.421000",
          "103027.421000",
          "103029.921000",
          "103032.421000",
          "103034.921000",
          "103037.421000",
          "103040.421000",
          "103042.921000",
          "103045.421000",
          "103047.921000",
          "103050.421000",
          "103053.421000",
          "103055.921000",
          "103058.421000",
          "103100.921000",
          "103103.421000",
          "103106.421000",
          "103108.921000",
          "103111.421000",
          "103113.921000",
          "103116.421000",
          "103119.421000",
          "103121.921000",
          "103124.421000",
          "103126.921000",
          "103129.421000",
          "103132.421000",
          "103134.921000",
          "103137.421000",
          "103139.921000",
          "103142.421000",
          "103145.421000",
          "103147.921000",
          "103150.421000",
          "103152.921000",
          "103155.421000",
          "103158.421000",
          "103200.921000",
          "103203.421000",
          "103205.921000",
          "103208.421000",
          "103211.421000",
          "103213.921000",
          "103216.421000",
          "103218.921000",
          "103221.421000",
          "103224.421000",
          "103226.921000",
          "103229.421000",
          "103231.921000",
          "103234.421000",
          "103237.421000",
          "103239.921000",
          "103242.421000",
          "103244.921000",
          "103247.421000",
          "103250.421000",
          "103252.921000",
          "103255.421000",
          "103257.921000",
          "103300.421000",
          "103303.421000",
          "103305.921000",
          "103308.421000",
          "103310.921000",
          "103313.421000",
          "103316.421000",
          "103318.921000",
          "103321.421000",
          "103328.781000"
        ],
        "InstanceNumber": [
          1,
          2,
          3,
          4,
          5,
          6,
          7,
          8,
          9,
          10,
          11,
          12,
          13,
          14,
          15,
          16,
          17,
          18,
          19,
          20,
          21,
          22,
          23,
          24,
          25,
          26,
          27,
          28,
          29,
          30,
          31,
          32,
          33,
          34,
          35,
          36,
          37,
          38,
          39,
          40,
          41,
          42,
          43,
          44,
          45,
          46,
          47,
          48,
          49,
          50,
          51,
          52,
          53,
          54,
          55,
          56,
          57,
          58,
          59,
          60,
          61,
          62,
          63,
          64,
          65,
          66,
          67,
          68,
          69,
          70,
          71,
          72,
          73,
          74,
          75,
          76,
          77,
          78,
          79,
          80,
          81,
          82,
          83,
          84,
          85,
          86,
          87,
          88,
          89,
          90,
          91,
          92,
          93,
          94,
          95,
          96,
          97,
          98,
          99,
          100,
          101,
          102,
          103,
          104,
          105,
          106,
          107,
          108,
          109,
          110,
          111,
          112,
          113,
          114,
          115,
          116,
          117,
          118,
          119,
          120,
          121,
          122,
          123,
          124,
          125,
          126,
          127,
          128,
          129,
          130,
          131,
          132,
          133,
          134,
          135,
          136,
          137,
          138,
          139,
          140,
          141,
          142,
          143,
          144,
          145,
          146,
          147,
          148,
          149,
          150
        ],
        "WindowCenter": [
          883.0,
          880.0,
          879.0,
          879.0,
          879.0,
          879.0,
          879.0,
          879.0,
          879.0,
          880.0,
          879.0,
          878.0,
          877.0,
          880.0,
          881.0,
          879.0,
          878.0,
          878.0,
          880.0,
          880.0,
          878.0,
          878.0,
          879.0,
          880.0,
          880.0,
          879.0,
          879.0,
          880.0,
          880.0,
          880.0,
          880.0,
          880.0,
          880.0,
          881.0,
          881.0,
          881.0,
          883.0,
          882.0,
          881.0,
          882.0,
          883.0,
          881.0,
          880.0,
          881.0,
          882.0,
          881.0,
          880.0,
          882.0,
          881.0,
          880.0,
          881.0,
          882.0,
          882.0,
          882.0,
          881.0,
          879.0,
          881.0,
          881.0,
          880.0,
          880.0,
          880.0,
          881.0,
          881.0,
          880.0,
          881.0,
          881.0,
          879.0,
          880.0,
          882.0,
          881.0,
          881.0,
          881.0,
          882.0,
          882.0,
          880.0,
          880.0,
          882.0,
          881.0,
          881.0,
          881.0,
          881.0,
          881.0,
          881.0,
          883.0,
          881.0,
          879.0,
          880.0,
          883.0,
          883.0,
          880.0,
          879.0,
          880.0,
          882.0,
          883.0,
          881.0,
          882.0,
          882.0,
          881.0,
          882.0,
          883.0,
          881.0,
          881.0,
          882.0,
          883.0,
          882.0,
          882.0,
          881.0,
          883.0,
          882.0,
          881.0,
          881.0,
          882.0,
          881.0,
          880.0,
          881.0,
          883.0,
          883.0,
          882.0,
          881.0,
          882.0,
          883.0,
          882.0,
          883.0,
          883.0,
          883.0,
          883.0,
          882.0,
          882.0,
          882.0,
          882.0,
          882.0,
          882.0,
          881.0,
          881.0,
          883.0,
          882.0,
          882.0,
          883.0,
          882.0,
          882.0,
          883.0,
          883.0,
          882.0,
          881.0,
          881.0,
          881.0,
          883.0,
          884.0,
          883.0,
          884.0
        ],
        "WindowWidth": [
          1977.0,
          1969.0,
          1965.0,
          1967.0,
          1966.0,
          1965.0,
          1966.0,
          1966.0,
          1965.0,
          1967.0,
          1964.0,
          1963.0,
          1961.0,
          1970.0,
          1971.0,
          1965.0,
          1964.0,
          1964.0,
          1969.0,
          1969.0,
          1963.0,
          1963.0,
          1965.0,
          1969.0,
          1968.0,
          1965.0,
          1965.0,
          1969.0,
          1969.0,
          1968.0,
          1967.0,
          1968.0,
          1968.0,
          1972.0,
          1973.0,
          1971.0,
          1976.0,
          1973.0,
          1973.0,
          1973.0,
          1976.0,
          1970.0,
          1970.0,
          1973.0,
          1975.0,
          1972.0,
          1968.0,
          1973.0,
          1970.0,
          1968.0,
          1970.0,
          1973.0,
          1973.0,
          1975.0,
          1969.0,
          1966.0,
          1969.0,
          1970.0,
          1968.0,
          1968.0,
          1969.0,
          1971.0,
          1971.0,
          1968.0,
          1970.0,
          1972.0,
          1966.0,
          1969.0,
          1974.0,
          1971.0,
          1972.0,
          1972.0,
          1975.0,
          1974.0,
          1969.0,
          1969.0,
          1974.0,
          1971.0,
          1971.0,
          1973.0,
          1971.0,
          1972.0,
          1971.0,
          1977.0,
          1971.0,
          1966.0,
          1968.0,
          1977.0,
          1975.0,
          1969.0,
          1967.0,
          1968.0,
          1974.0,
          1976.0,
          1971.0,
          1972.0,
          1973.0,
          1970.0,
          1973.0,
          1976.0,
          1970.0,
          1970.0,
          1973.0,
          1976.0,
          1975.0,
          1974.0,
          1971.0,
          1977.0,
          1973.0,
          1969.0,
          1969.0,
          1974.0,
          1969.0,
          1967.0,
          1970.0,
          1976.0,
          1976.0,
          1972.0,
          1970.0,
          1975.0,
          1978.0,
          1975.0,
          1975.0,
          1976.0,
          1978.0,
          1976.0,
          1974.0,
          1974.0,
          1974.0,
          1973.0,
          1975.0,
          1974.0,
          1971.0,
          1972.0,
          1976.0,
          1973.0,
          1975.0,
          1975.0,
          1974.0,
          1975.0,
          1977.0,
          1976.0,
          1973.0,
          1969.0,
          1971.0,
          1971.0,
          1976.0,
          1981.0,
          1978.0,
          1978.0
        ]
      },
      "slices": {}
    }
  },
  "dummy_trs": 0,
  "dvars_nstd": 78.60272452342275,
  "dvars_std": 1.050011501342282,
  "dvars_vstd": 1.02081976557047,
  "efc": 0.5984015834473024,
  "fber": 173.80230712890625,
  "fd_mean": 0.041401479972746506,
  "fd_num": 0,
  "fd_perc": 0.0,
  "fwhm_avg": 3.192169265277284,
  "fwhm_x": 2.9642396754576077,
  "fwhm_y": 3.0562136519951046,
  "fwhm_z": 3.5560544683791404,
  "gcor": 0.00205094,
  "gsr_x": 0.0601760558784008,
  "gsr_y": 0.0046187336556613445,
  "provenance": {
    "md5sum": "77f123b6b6715826f5ab2d1626a770ce",
    "settings": {
      "fd_thres": 0.2,
      "testing": false
    },
    "software": "mriqc",
    "version": "22.0.6",
    "webapi_port": null,
    "webapi_url": "https://mriqc.nimh.nih.gov/api/v1"
  },
  "size_t": 150,
  "size_x": 188,
  "size_y": 188,
  "size_z": 46,
  "snr": 1.832030538543891,
  "spacing_tr": 2.5999999046325684,
  "spacing_x": 1.0957447290420532,
  "spacing_y": 1.0957447290420532,
  "spacing_z": 1.100000023841858,
  "summary_bg_k": 38.784854529870756,
  "summary_bg_mad": 35.75048345620034,
  "summary_bg_mean": 112.8626480102539,
  "summary_bg_median": 61.58000183105469,
  "summary_bg_n": 993658.0,
  "summary_bg_p05": 30.406667709350586,
  "summary_bg_p95": 337.08867034911987,
