{
  "aor": 0.0009697297297297296,
  "aqi": 0.016830577027027026,
  "bids_meta": {
    "AcquisitionMatrixPE": 188,
    "AcquisitionNumber": 1,
    "AcquisitionTime": "09:00:38.160000",
    "BandwidthPerPixelPhaseEncode": 19.46,
    "BaseResolution": 188,
    "CogAtlasID": "TODO",
    "ConversionSoftware": "dcm2niix",
    "ConversionSoftwareVersion": "v1.0.20180606 GCC4.8.5",
    "DelayTime": 1.2,
    "DerivedVendorReportedEchoSpacing": 0.000820013,
    "DeviceSerialNumber": "18930",
    "DwellTime": 1.9e-06,
    "EchoTime": 0.02,
    "EffectiveEchoSpacing": 0.000273338,
    "FlipAngle": 80,
    "ImageComments": "Unaliased_MB2_PE2",
    "ImageOrientationPatientDICOM": [
      0.999755,
      0.015956,
      0.0153145,
      0.0114333,
      0.219867,
      -0.975463
    ],
    "ImageType": [
      "ORIGINAL",
      "PRIMARY",
      "M",
      "MB",
      "ND",
      "MOSAIC"
    ],
    "InPlanePhaseEncodingDirectionDICOM": "COL",
    "InstitutionAddress": "Oxfordlaan_55_Maastricht_12C0A2_Limburg_NL_6229_EV",
    "InstitutionName": "Scannexus",
    "InstitutionalDepartmentName": "MRI_7T",
    "MRAcquisitionType": "2D",
    "MagneticFieldStrength": 6.98,
    "Manufacturer": "Siemens",
    "ManufacturersModelName": "Investigational_Device_7T",
    "Modality": "MR",
    "MultibandAccelerationFactor": 2,
    "ParallelReductionFactorInPlane": 3,
    "PartialFourier": 0.75,
    "PatientPosition": "HFS",
    "PercentPhaseFOV": 100,
    "PhaseEncodingDirection": "j",
    "PhaseEncodingSteps": 141,
    "PhaseResolution": 1,
    "PixelBandwidth": 1400,
    "ProcedureStepDescription": "FeDem_Faruk",
    "ProtocolName": "cmrr_mbep2d_bold_AP_run2",
    "PulseSequenceDetails": "%CustomerSeq%_cmrr_mbep2d_bold",
    "ReceiveCoilName": "32Ch_Head_7T",
    "ReconMatrixPE": 188,
    "RepetitionTime": 2.6,
    "SAR": 0.0526661,
    "ScanOptions": "PFP_FS",
    "ScanningSequence": "EP",
    "SequenceName": "epfid2d1_188",
    "SequenceVariant": "SK_SS",
    "SeriesDescription": "cmrr_mbep2d_bold_AP_run2",
    "SeriesNumber": 11,
    "ShimSetting": [
      110,
      -39,
      352,
      551,
      168,
      265,
      -75,
      84
    ],
    "SliceThickness": 1.1,
    "SliceTiming": [
      0,
      0.7325,
      0.0625,
      0.795,
      0.1225,
      0.855,
      0.185,
      0.9175,
      0.245,
      0.9775,
      0.305,
      1.04,
      0.3675,
      1.1,
      0.4275,
      1.1625,
      0.49,
      1.2225,
      0.55,
      1.2825,
      0.6125,
      1.345,
      0.6725,
      0,
      0.7325,
      0.0625,
      0.795,
      0.1225,
      0.855,
      0.185,
      0.9175,
      0.245,
      0.9775,
      0.305,
      1.04,
      0.3675,
      1.1,
      0.4275,
      1.1625,
      0.49,
      1.2225,
      0.55,
      1.2825,
      0.6125,
      1.345,
      0.6725
    ],
    "SoftwareVersions": "syngo_MR_B17",
    "SpacingBetweenSlices": 1.1,
    "StationName": "MRC18930",
    "TaskName": "auditory",
    "TotalReadoutTime": 0.0511141,
    "TxRefAmp": 185,
    "dataset": "ds001942",
    "dcmmeta_affine": [
      [
        -1.095476746559143,
        0.012527965009212494,
        0.020824825391173363,
        103.05306243896484
      ],
      [
        -0.017483726143836975,
        0.24091863632202148,
        -1.072939157485962,
        21.79283905029297
      ],
      [
        0.016780756413936615,
        1.0688581466674805,
        0.24159440398216248,
        -118.52979278564453
      ],
      [
        0.0,
        0.0,
        0.0,
        1.0
      ]
    ],
    "dcmmeta_reorient_transform": [
      [
        0.0,
        -1.0,
        0.0,
        187.0
      ],
      [
        1.0,
        0.0,
        0.0,
        0.0
      ],
      [
        0.0,
        0.0,
        1.0,
        0.0
      ],
      [
        0.0,
        0.0,
        0.0,
        1.0
      ]
    ],
    "dcmmeta_shape": [
      188,
      188,
      46,
      150
    ],
    "dcmmeta_slice_dim": 2,
    "dcmmeta_version": 0.6,
    "global": {
      "const": {
        "AcquisitionMatrix": [
          188,
          0,
          0,
          188
        ],
        "AngioFlag": "N",
        "BitsAllocated": 16,
        "BitsStored": 12,
        "Columns": 1316,
        "EchoNumbers": 1,
        "EchoTime": 20.0,
        "EchoTrainLength": 1,
        "FlipAngle": 80.0,
        "HighBit": 11,
        "ImageOrientationPatient": [
          0.99975540619208,
          0.01595602073933,
          0.01531447654586,
          0.01143328775089,
          0.21986748273264,
          -0.9754627465813
        ],
        "ImagePositionPatient": [
          -730.31042959187,
          -212.58355542209,
          674.71833962045
        ],
        "ImageType": [
          "ORIGINAL",
          "PRIMARY",
          "M",
          "MB",
          "ND",
          "MOSAIC"
        ],
        "ImagedNucleus": "1H",
        "ImagingFrequency": 297.205719,
        "InPlanePhaseEncodingDirection": "COL",
        "LargestImagePixelValue": 4095,
        "MRAcquisitionType": "2D",
        "MagneticFieldStrength": 6.98,
        "Manufacturer": "SIEMENS",
        "ManufacturerModelName": "Investigational_Device_7T",
        "Modality": "MR",
        "NumberOfAverages": 1.0,
        "NumberOfPhaseEncodingSteps": 141,
        "PercentPhaseFieldOfView": 100.0,
        "PercentSampling": 100.0,
        "PerformedProcedureStepStartTime": "080807.562000",
        "PhotometricInterpretation": "MONOCHROME2",
        "PixelBandwidth": 1400.0,
        "PixelRepresentation": 0,
        "PixelSpacing": [
          1.0957447290421,
          1.0957447290421
        ],
        "ProtocolName": "cmrr_mbep2d_bold_AP_run2",
        "RepetitionTime": 2600.0,
        "Rows": 1316,
        "SAR": 0.0526661131848,
        "SamplesPerPixel": 1,
        "ScanOptions": [
          "PFP",
          "FS"
        ],
        "ScanningSequence": "EP",
        "SequenceName": "epfid2d1_188",
        "SequenceVariant": [
          "SK",
          "SS"
        ],
        "SeriesDescription": "cmrr_mbep2d_bold_AP_run2",
        "SeriesNumber": 11,
        "SeriesTime": "090047.906000",
        "SliceLocation": -45.338603166727,
        "SliceThickness": 1.1000000238419,
        "SmallestImagePixelValue": 0,
        "SoftwareVersions": "syngo MR B17",
        "SpacingBetweenSlices": 1.0999999744075,
        "SpecificCharacterSet": "ISO_IR 100",
        "StudyID": "1",
        "StudyTime": "080807.515000",
        "TransmitCoilName": "32Ch_Head_7T",
        "VariableFlipAngleFlag": "N",
        "WindowCenterWidthExplanation": "Algo1",
        "dBdt": 0.0
      },
      "slices": {}
    },
    "modality": "bold",
    "run_id": 2,
    "session_id": "SES02",
    "subject_id": "S02",
    "task_id": "auditory",
    "time": {
      "samples": {
        "AcquisitionNumber": [
          1,
          2,
          3,
          4,
          5,
          6,
          7,
          8,
          9,
          10,
          11,
          12,
          13,
          14,
          15,
          16,
          17,
          18,
          19,
          20,
          21,
          22,
          23,
          24,
          25,
          26,
          27,
          28,
          29,
          30,
          31,
          32,
          33,
          34,
          35,
          36,
          37,
          38,
          39,
          40,
          41,
          42,
          43,
          44,
          45,
          46,
          47,
          48,
          49,
          50,
          51,
          52,
          53,
          54,
          55,
          56,
          57,
          58,
          59,
          60,
          61,
          62,
          63,
          64,
          65,
          66,
          67,
          68,
          69,
          70,
          71,
          72,
          73,
          74,
          75,
          76,
          77,
          78,
          79,
          80,
          81,
          82,
          83,
          84,
          85,
          86,
          87,
          88,
          89,
          90,
          91,
          92,
          93,
          94,
          95,
          96,
          97,
          98,
          99,
          100,
          101,
          102,
          103,
          104,
          105,
          106,
          107,
          108,
          109,
          110,
          111,
          112,
          113,
          114,
          115,
          116,
          117,
          118,
          119,
          120,
          121,
          122,
          123,
          124,
          125,
          126,
          127,
          128,
          129,
          130,
          131,
          132,
          133,
          134,
          135,
          136,
          137,
          138,
          139,
          140,
          141,
          142,
          143,
          144,
          145,
          146,
          147,
          148,
          149,
          150
        ],
        "AcquisitionTime": [
          "090038.160000",
          "090040.770000",
          "090043.382500",
          "090045.992500",
          "090048.602500",
          "090051.212500",
          "090053.822500",
          "090056.432500",
          "090059.045000",
          "090101.655000",
          "090104.265000",
          "090106.875000",
          "090109.485000",
          "090112.095000",
          "090114.707500",
          "090117.317500",
          "090119.927500",
          "090122.537500",
          "090125.147500",
          "090127.760000",
          "090130.370000",
          "090132.980000",
          "090135.590000",
          "090138.200000",
          "090140.810000",
          "090143.422500",
          "090146.032500",
          "090148.642500",
          "090151.252500",
          "090153.862500",
          "090156.472500",
          "090159.085000",
          "090201.695000",
          "090204.305000",
          "090206.915000",
          "090209.525000",
          "090212.137500",
          "090214.747500",
          "090217.357500",
          "090219.967500",
          "090222.577500",
          "090225.187500",
          "090227.800000",
          "090230.410000",
          "090233.020000",
          "090235.630000",
          "090238.240000",
          "090240.852500",
          "090243.462500",
          "090246.072500",
          "090248.682500",
          "090251.292500",
          "090253.902500",
          "090256.515000",
          "090259.125000",
          "090301.735000",
          "090304.345000",
          "090306.955000",
          "090309.565000",
          "090312.177500",
          "090314.787500",
          "090317.397500",
          "090320.007500",
          "090322.617500",
          "090325.230000",
          "090327.840000",
          "090330.450000",
          "090333.060000",
          "090335.670000",
          "090338.280000",
          "090340.892500",
          "090343.502500",
          "090346.112500",
          "090348.722500",
          "090351.332500",
          "090353.942500",
          "090356.555000",
          "090359.165000",
          "090401.775000",
          "090404.385000",
          "090406.995000",
          "090409.607500",
          "090412.217500",
          "090414.827500",
          "090417.437500",
          "090420.047500",
          "090422.657500",
          "090425.270000",
          "090427.880000",
          "090430.490000",
          "090433.100000",
          "090435.710000",
          "090438.320000",
          "090440.932500",
          "090443.542500",
          "090446.152500",
          "090448.762500",
          "090451.372500",
          "090453.985000",
          "090456.595000",
          "090459.205000",
          "090501.815000",
          "090504.425000",
          "090507.035000",
          "090509.647500",
          "090512.257500",
          "090514.867500",
          "090517.477500",
          "090520.087500",
          "090522.697500",
          "090525.310000",
          "090527.920000",
          "090530.530000",
          "090533.140000",
          "090535.750000",
          "090538.362500",
          "090540.972500",
          "090543.582500",
          "090546.192500",
          "090548.802500",
          "090551.412500",
          "090554.025000",
          "090556.635000",
          "090559.245000",
          "090601.855000",
          "090604.465000",
          "090607.075000",
          "090609.687500",
          "090612.297500",
          "090614.907500",
          "090617.517500",
          "090620.127500",
          "090622.740000",
          "090625.350000",
          "090627.960000",
          "090630.570000",
          "090633.180000",
          "090635.790000",
          "090638.402500",
          "090641.012500",
          "090643.622500",
          "090646.232500",
          "090648.842500",
          "090651.452500",
          "090654.065000",
          "090656.675000",
          "090659.285000",
          "090701.895000",
          "090704.505000",
          "090707.117500"
        ],
        "ContentTime": [
          "090047.921000",
          "090047.921000",
          "090048.406000",
          "090050.906000",
          "090053.406000",
          "090055.906000",
          "090058.906000",
          "090101.406000",
          "090103.906000",
          "090106.406000",
          "090108.906000",
          "090111.906000",
          "090114.406000",
          "090116.906000",
          "090119.406000",
          "090121.906000",
          "090124.906000",
          "090127.406000",
          "090129.906000",
          "090132.406000",
          "090134.906000",
          "090137.906000",
          "090140.406000",
          "090142.906000",
          "090145.406000",
          "090147.906000",
          "090150.906000",
          "090153.406000",
          "090155.906000",
          "090158.406000",
          "090200.906000",
          "090203.906000",
          "090206.406000",
          "090208.906000",
          "090211.406000",
          "090213.906000",
          "090216.906000",
          "090219.406000",
          "090221.906000",
          "090224.406000",
          "090226.906000",
          "090229.906000",
          "090232.406000",
          "090234.906000",
          "090237.406000",
          "090239.906000",
          "090242.906000",
          "090245.406000",
          "090247.921000",
          "090250.406000",
          "090253.406000",
          "090255.906000",
          "090258.406000",
          "090300.906000",
          "090303.406000",
          "090305.906000",
          "090308.906000",
          "090311.406000",
          "090313.906000",
          "090316.406000",
          "090319.406000",
          "090321.906000",
          "090324.406000",
          "090326.906000",
          "090329.406000",
          "090331.906000",
          "090334.906000",
          "090337.406000",
          "090339.906000",
          "090342.406000",
          "090344.906000",
          "090347.906000",
          "090350.406000",
          "090352.906000",
          "090355.406000",
          "090357.906000",
          "090400.906000",
          "090403.406000",
          "090405.906000",
          "090408.406000",
          "090410.906000",
          "090413.906000",
          "090416.406000",
          "090418.906000",
          "090421.406000",
          "090424.406000",
          "090426.906000",
          "090429.406000",
          "090431.906000",
          "090434.406000",
          "090436.906000",
          "090439.906000",
          "090442.406000",
          "090444.906000",
          "090447.406000",
          "090449.906000",
          "090452.906000",
          "090455.406000",
          "090457.906000",
          "090500.406000",
          "090502.906000",
          "090505.906000",
          "090508.406000",
          "090510.906000",
          "090513.406000",
          "090515.906000",
          "090518.906000",
          "090521.406000",
          "090523.906000",
          "090526.406000",
          "090528.906000",
          "090531.906000",
          "090534.406000",
          "090536.906000",
          "090539.406000",
          "090541.906000",
          "090544.906000",
          "090547.406000",
          "090549.906000",
          "090552.406000",
          "090555.406000",
          "090557.906000",
          "090600.406000",
          "090602.906000",
          "090605.406000",
          "090607.906000",
          "090610.906000",
          "090613.406000",
          "090615.906000",
          "090618.406000",
          "090620.906000",
          "090623.906000",
          "090626.406000",
          "090628.906000",
          "090631.406000",
          "090633.906000",
          "090636.906000",
          "090639.406000",
          "090641.906000",
          "090644.406000",
          "090647.406000",
          "090649.906000",
          "090652.406000",
          "090654.906000",
          "090657.406000",
          "090659.906000",
          "090702.906000",
          "090705.406000",
          "090707.906000",
          "090715.281000"
        ],
        "InstanceCreationTime": [
          "090047.921000",
          "090047.921000",
          "090048.406000",
          "090050.906000",
          "090053.406000",
          "090055.906000",
          "090058.906000",
          "090101.406000",
          "090103.906000",
          "090106.406000",
          "090108.906000",
          "090111.906000",
          "090114.406000",
          "090116.906000",
          "090119.406000",
          "090121.906000",
          "090124.906000",
          "090127.406000",
          "090129.906000",
          "090132.406000",
          "090134.906000",
          "090137.906000",
          "090140.406000",
          "090142.906000",
          "090145.406000",
          "090147.906000",
          "090150.906000",
          "090153.406000",
          "090155.906000",
          "090158.406000",
          "090200.906000",
          "090203.906000",
          "090206.406000",
          "090208.906000",
          "090211.406000",
          "090213.906000",
          "090216.906000",
          "090219.406000",
          "090221.906000",
          "090224.406000",
          "090226.906000",
          "090229.906000",
          "090232.406000",
          "090234.906000",
          "090237.406000",
          "090239.906000",
          "090242.906000",
          "090245.406000",
          "090247.921000",
          "090250.406000",
          "090253.406000",
          "090255.906000",
          "090258.406000",
          "090300.906000",
          "090303.406000",
          "090305.906000",
          "090308.906000",
          "090311.406000",
          "090313.906000",
          "090316.406000",
          "090319.406000",
          "090321.906000",
          "090324.406000",
          "090326.906000",
          "090329.406000",
          "090331.906000",
          "090334.906000",
          "090337.406000",
          "090339.906000",
          "090342.406000",
          "090344.906000",
          "090347.906000",
          "090350.406000",
          "090352.906000",
          "090355.406000",
          "090357.906000",
          "090400.906000",
          "090403.406000",
          "090405.906000",
          "090408.406000",
          "090410.906000",
          "090413.906000",
          "090416.406000",
          "090418.906000",
          "090421.406000",
          "090424.406000",
          "090426.906000",
          "090429.406000",
          "090431.906000",
          "090434.406000",
          "090436.906000",
          "090439.906000",
          "090442.406000",
          "090444.906000",
          "090447.406000",
          "090449.906000",
          "090452.906000",
          "090455.406000",
          "090457.906000",
          "090500.406000",
          "090502.906000",
          "090505.906000",
          "090508.406000",
          "090510.906000",
          "090513.406000",
          "090515.906000",
          "090518.906000",
          "090521.406000",
          "090523.906000",
          "090526.406000",
          "090528.906000",
          "090531.906000",
          "090534.406000",
          "090536.906000",
          "090539.406000",
          "090541.906000",
          "090544.906000",
          "090547.406000",
          "090549.906000",
          "090552.406000",
          "090555.406000",
          "090557.906000",
          "090600.406000",
          "090602.906000",
          "090605.406000",
          "090607.906000",
          "090610.906000",
          "090613.406000",
          "090615.906000",
          "090618.406000",
          "090620.906000",
          "090623.906000",
          "090626.406000",
          "090628.906000",
          "090631.406000",
          "090633.906000",
          "090636.906000",
          "090639.406000",
          "090641.906000",
          "090644.406000",
          "090647.406000",
          "090649.906000",
          "090652.406000",
          "090654.906000",
          "090657.406000",
          "090659.906000",
          "090702.906000",
          "090705.406000",
          "090707.906000",
          "090715.281000"
        ],
        "InstanceNumber": [
          1,
          2,
          3,
          4,
          5,
          6,
          7,
          8,
          9,
          10,
          11,
          12,
          13,
          14,
          15,
          16,
          17,
          18,
          19,
          20,
          21,
          22,
          23,
          24,
          25,
          26,
          27,
          28,
          29,
          30,
          31,
          32,
          33,
          34,
          35,
          36,
          37,
          38,
          39,
          40,
          41,
          42,
          43,
          44,
          45,
          46,
          47,
          48,
          49,
          50,
          51,
          52,
          53,
          54,
          55,
          56,
          57,
          58,
          59,
          60,
          61,
          62,
          63,
          64,
          65,
          66,
          67,
          68,
          69,
          70,
          71,
          72,
          73,
          74,
          75,
          76,
          77,
          78,
          79,
          80,
          81,
          82,
          83,
          84,
          85,
          86,
          87,
          88,
          89,
          90,
          91,
          92,
          93,
          94,
          95,
          96,
          97,
          98,
          99,
          100,
          101,
          102,
          103,
          104,
          105,
          106,
          107,
          108,
          109,
          110,
          111,
          112,
          113,
          114,
          115,
          116,
          117,
          118,
          119,
          120,
          121,
          122,
          123,
          124,
          125,
          126,
          127,
          128,
          129,
          130,
          131,
          132,
          133,
          134,
          135,
          136,
          137,
          138,
          139,
          140,
          141,
          142,
          143,
          144,
          145,
          146,
          147,
          148,
          149,
          150
        ],
        "WindowCenter": [
          881.0,
          880.0,
          877.0,
          880.0,
          877.0,
          878.0,
          879.0,
          875.0,
          876.0,
          875.0,
          875.0,
          876.0,
          875.0,
          877.0,
          875.0,
          876.0,
          880.0,
          876.0,
          876.0,
          876.0,
          875.0,
          877.0,
          876.0,
          875.0,
          875.0,
          875.0,
          876.0,
          873.0,
          876.0,
          875.0,
          873.0,
          875.0,
          876.0,
          875.0,
          873.0,
          876.0,
          875.0,
          873.0,
          874.0,
          873.0,
          876.0,
          875.0,
          875.0,
          874.0,
          876.0,
          874.0,
          874.0,
          876.0,
          877.0,
          875.0,
          876.0,
          875.0,
          875.0,
          873.0,
          874.0,
          875.0,
          876.0,
          876.0,
          876.0,
          876.0,
          876.0,
          877.0,
          877.0,
          878.0,
          879.0,
          876.0,
          875.0,
          876.0,
          877.0,
          878.0,
          876.0,
          876.0,
          878.0,
          876.0,
          874.0,
          875.0,
          874.0,
          875.0,
          874.0,
          875.0,
          873.0,
          877.0,
          877.0,
          877.0,
          879.0,
          876.0,
          877.0,
          876.0,
          877.0,
          876.0,
          877.0,
          877.0,
          878.0,
          876.0,
          877.0,
          875.0,
          877.0,
          881.0,
          879.0,
          879.0,
          879.0,
          880.0,
          880.0,
          878.0,
          879.0,
          881.0,
          881.0,
          878.0,
          878.0,
          879.0,
          879.0,
          877.0,
          878.0,
          877.0,
          877.0,
          878.0,
          876.0,
          876.0,
          877.0,
          877.0,
          876.0,
          877.0,
          877.0,
          876.0,
          874.0,
          875.0,
          876.0,
          877.0,
          876.0,
          876.0,
          879.0,
          880.0,
          880.0,
          878.0,
          876.0,
          879.0,
          881.0,
          879.0,
          878.0,
          875.0,
          879.0,
          879.0,
          878.0,
          877.0,
          880.0,
          880.0,
          880.0,
          879.0,
          878.0,
          881.0
        ],
        "WindowWidth": [
          1971.0,
          1969.0,
          1961.0,
          1969.0,
          1959.0,
          1964.0,
          1966.0,
          1954.0,
          1957.0,
          1954.0,
          1956.0,
          1958.0,
          1957.0,
          1960.0,
          1954.0,
          1957.0,
          1969.0,
          1957.0,
          1957.0,
          1959.0,
          1956.0,
          1960.0,
          1958.0,
          1955.0,
          1954.0,
          1955.0,
          1959.0,
          1950.0,
          1957.0,
          1953.0,
          1950.0,
          1956.0,
          1956.0,
          1954.0,
          1948.0,
          1957.0,
          1954.0,
          1950.0,
          1951.0,
          1950.0,
          1958.0,
          1953.0,
          1955.0,
          1953.0,
          1959.0,
          1952.0,
          1954.0,
          1958.0,
          1959.0,
          1954.0,
          1958.0,
          1955.0,
          1955.0,
          1950.0,
          1953.0,
          1955.0,
          1959.0,
          1958.0,
          1958.0,
          1957.0,
          1958.0,
          1959.0,
          1960.0,
          1963.0,
          1966.0,
          1959.0,
          1954.0,
          1958.0,
          1960.0,
          1963.0,
          1957.0,
          1957.0,
          1963.0,
          1958.0,
          1953.0,
          1954.0,
          1953.0,
          1954.0,
          1952.0,
          1955.0,
          1948.0,
          1960.0,
          1959.0,
          1961.0,
          1966.0,
          1958.0,
          1961.0,
          1957.0,
          1959.0,
          1956.0,
          1960.0,
          1961.0,
          1963.0,
          1957.0,
          1960.0,
          1954.0,
          1960.0,
          1970.0,
          1966.0,
          1967.0,
          1965.0,
          1970.0,
          1968.0,
          1964.0,
          1966.0,
          1972.0,
          1971.0,
          1961.0,
          1964.0,
          1967.0,
          1965.0,
          1960.0,
          1962.0,
          1961.0,
          1962.0,
          1963.0,
          1957.0,
          1959.0,
          1961.0,
          1960.0,
          1957.0,
          1960.0,
          1960.0,
          1957.0,
          1951.0,
          1954.0,
          1958.0,
          1961.0,
          1956.0,
          1958.0,
          1966.0,
          1969.0,
          1970.0,
          1963.0,
          1956.0,
          1967.0,
          1972.0,
          1965.0,
          1964.0,
          1955.0,
          1965.0,
          1964.0,
          1963.0,
          1960.0,
          1968.0,
          1968.0,
          1968.0,
          1966.0,
          1963.0,
          1973.0
        ]
      },
      "slices": {}
    }
  },
  "dummy_trs": 2,
  "dvars_nstd": 88.64757179687078,
  "dvars_std": 1.0375671631292518,
  "dvars_vstd": 0.9939030070068031,
  "efc": 0.5988060665685343,
  "fber": 170.40780639648438,
  "fd_mean": 0.1931193658764795,
  "fd_num": 65,
  "fd_perc": 43.91891891891892,
  "fwhm_avg": 3.1946551317711482,
  "fwhm_x": 2.9629437531845055,
  "fwhm_y": 3.0418489924326892,
  "fwhm_z": 3.5791726496962495,
  "gcor": 0.00302266,
  "gsr_x": 0.054516375064849854,
  "gsr_y": 0.008323452435433865,
  "provenance": {
    "md5sum": "80859762a91f4b4e24a487739b77d6aa",
    "settings": {
      "fd_thres": 0.2,
      "testing": false
    },
    "software": "mriqc",
    "version": "22.0.6",
    "webapi_port": null,
    "webapi_url": "https://mriqc.nimh.nih.gov/api/v1"
  },
  "size_t": 148,
  "size_x": 188,
  "size_y": 188,
  "size_z": 46,
  "snr": 1.843774928306779,
  "spacing_tr": 2.5999999046325684,
  "spacing_x": 1.0957447290420532,
  "spacing_y": 1.0957447290420532,
  "spacing_z": 1.100000023841858,
  "summary_bg_k": 41.22014735556873,
  "summary_bg_mad": 36.40389531955937,
  "summary_bg_mean": 110.81010437011719,
  "summary_bg_median": 62.10135269165039,
  "summary_bg_n": 995048.0,
  "summary_bg_p05": 30.66216278076172,
