{
  "aor": 0.0006854,
  "aqi": 0.014236944,
  "bids_meta": {
    "AcquisitionMatrixPE": 188,
    "AcquisitionNumber": 1,
    "AcquisitionTime": "16:32:12.252500",
    "BandwidthPerPixelPhaseEncode": 19.46,
    "BaseResolution": 188,
    "ConversionSoftware": "dcm2niix",
    "ConversionSoftwareVersion": "v1.0.20180606 GCC4.8.5",
    "DelayTime": 1.2,
    "DerivedVendorReportedEchoSpacing": 0.000820013,
    "DeviceSerialNumber": "18930",
    "DwellTime": 1.9e-06,
    "EchoTime": 0.02,
    "EffectiveEchoSpacing": 0.000273338,
    "FlipAngle": 80,
    "ImageComments": "Unaliased_MB2_PE2",
    "ImageOrientationPatientDICOM": [
      0.999735,
      -0.0174383,
      -0.0150539,
      -0.0126913,
      0.128453,
      -0.991634
    ],
    "ImageType": [
      "ORIGINAL",
      "PRIMARY",
      "M",
      "MB",
      "ND",
      "MOSAIC"
    ],
    "InPlanePhaseEncodingDirectionDICOM": "COL",
    "InstitutionAddress": "Oxfordlaan_55_Maastricht_753AAF_Limburg_NL_6229_EV",
    "InstitutionName": "Scannexus",
    "InstitutionalDepartmentName": "MRI_7T",
    "MRAcquisitionType": "2D",
    "MagneticFieldStrength": 6.98,
    "Manufacturer": "Siemens",
    "ManufacturersModelName": "Investigational_Device_7T",
    "Modality": "MR",
    "MultibandAccelerationFactor": 2,
    "ParallelReductionFactorInPlane": 3,
    "PartialFourier": 0.75,
    "PatientPosition": "HFS",
    "PercentPhaseFOV": 100,
    "PhaseEncodingDirection": "j",
    "PhaseEncodingSteps": 141,
    "PhaseResolution": 1,
    "PixelBandwidth": 1400,
    "ProcedureStepDescription": "FeDem_Faruk",
    "ProtocolName": "cmrr_mbep2d_bold_AP_run7",
    "PulseSequenceDetails": "%CustomerSeq%_cmrr_mbep2d_bold",
    "ReceiveCoilName": "32Ch_Head_7T",
    "ReconMatrixPE": 188,
    "RepetitionTime": 2.6,
    "SAR": 0.106587,
    "ScanOptions": "PFP_FS",
    "ScanningSequence": "EP",
    "SequenceName": "epfid2d1_188",
    "SequenceVariant": "SK_SS",
    "SeriesDescription": "cmrr_mbep2d_bold_AP_run7",
    "SeriesNumber": 20,
    "ShimSetting": [
      38,
      -81,
      367,
      509,
      -111,
      388,
      -130,
      141
    ],
    "SliceThickness": 1.1,
    "SliceTiming": [
      0,
      0.7325,
      0.06,
      0.795,
      0.1225,
      0.855,
      0.1825,
      0.9175,
      0.245,
      0.9775,
      0.305,
      1.0375,
      0.3675,
      1.1,
      0.4275,
      1.16,
      0.4875,
      1.2225,
      0.55,
      1.2825,
      0.61,
      1.345,
      0.6725,
      0,
      0.7325,
      0.06,
      0.795,
      0.1225,
      0.855,
      0.1825,
      0.9175,
      0.245,
      0.9775,
      0.305,
      1.0375,
      0.3675,
      1.1,
      0.4275,
      1.16,
      0.4875,
      1.2225,
      0.55,
      1.2825,
      0.61,
      1.345,
      0.6725
    ],
    "SoftwareVersions": "syngo_MR_B17",
    "SpacingBetweenSlices": 1.1,
    "StationName": "MRC18930",
    "TaskName": "auditory",
    "TotalReadoutTime": 0.0511141,
    "TxRefAmp": 240,
    "dataset": "ds001942",
    "dcmmeta_affine": [
      [
        -1.0954539775848389,
        -0.013906460255384445,
        -0.02114875242114067,
        110.03825378417969
      ],
      [
        0.019107934087514877,
        0.14075127243995667,
        -1.0907185077667236,
        31.862977981567383
      ],
      [
        -0.016495225951075554,
        1.0865782499313354,
        0.14101693034172058,
        -120.29054260253906
      ],
      [
        0.0,
        0.0,
        0.0,
        1.0
      ]
    ],
    "dcmmeta_reorient_transform": [
      [
        0.0,
        -1.0,
        0.0,
        187.0
      ],
      [
        1.0,
        0.0,
        0.0,
        0.0
      ],
      [
        0.0,
        0.0,
        1.0,
        0.0
      ],
      [
        0.0,
        0.0,
        0.0,
        1.0
      ]
    ],
    "dcmmeta_shape": [
      188,
      188,
      46,
      150
    ],
    "dcmmeta_slice_dim": 2,
    "dcmmeta_version": 0.6,
    "global": {
      "const": {
        "AcquisitionMatrix": [
          188,
          0,
          0,
          188
        ],
        "AngioFlag": "N",
        "BitsAllocated": 16,
        "BitsStored": 12,
        "Columns": 1316,
        "EchoNumbers": 1,
        "EchoTime": 20.0,
        "EchoTrainLength": 1,
        "FlipAngle": 80.0,
        "HighBit": 11,
        "ImageOrientationPatient": [
          0.99973460762243,
          -0.0174383082265,
          -0.0150538941213,
          -0.0126913317262,
          0.1284526139087,
          -0.991634436715
        ],
        "ImagePositionPatient": [
          -717.4305167741,
          -126.79031083699,
          705.03299846262
        ],
        "ImageType": [
          "ORIGINAL",
          "PRIMARY",
          "M",
          "MB",
          "ND",
          "MOSAIC"
        ],
        "ImagedNucleus": "1H",
        "ImagingFrequency": 297.205627,
        "InPlanePhaseEncodingDirection": "COL",
        "LargestImagePixelValue": 4095,
        "MRAcquisitionType": "2D",
        "MagneticFieldStrength": 6.98,
        "Manufacturer": "SIEMENS",
        "ManufacturerModelName": "Investigational_Device_7T",
        "Modality": "MR",
        "NumberOfAverages": 1.0,
        "NumberOfPhaseEncodingSteps": 141,
        "PercentPhaseFieldOfView": 100.0,
        "PercentSampling": 100.0,
        "PerformedProcedureStepStartTime": "144037.625000",
        "PhotometricInterpretation": "MONOCHROME2",
        "PixelBandwidth": 1400.0,
        "PixelRepresentation": 0,
        "PixelSpacing": [
          1.0957447290421,
          1.0957447290421
        ],
        "ProtocolName": "cmrr_mbep2d_bold_AP_run7",
        "RepetitionTime": 2600.0,
        "Rows": 1316,
        "SAR": 0.10658679616396,
        "SamplesPerPixel": 1,
        "ScanOptions": [
          "PFP",
          "FS"
        ],
        "ScanningSequence": "EP",
        "SequenceName": "epfid2d1_188",
        "SequenceVariant": [
          "SK",
          "SS"
        ],
        "SeriesDescription": "cmrr_mbep2d_bold_AP_run7",
        "SeriesNumber": 20,
        "SeriesTime": "163221.828000",
        "SliceLocation": -49.13065131481,
        "SliceThickness": 1.1000000238419,
        "SmallestImagePixelValue": 0,
        "SoftwareVersions": "syngo MR B17",
        "SpacingBetweenSlices": 1.0999999671667,
        "SpecificCharacterSet": "ISO_IR 100",
        "StudyID": "1",
        "StudyTime": "144037.484000",
        "TransmitCoilName": "32Ch_Head_7T",
        "VariableFlipAngleFlag": "N",
        "WindowCenterWidthExplanation": "Algo1",
        "dBdt": 0.0
      },
      "slices": {}
    },
    "modality": "bold",
    "run_id": 7,
    "session_id": "SES02",
    "subject_id": "S08",
    "task_id": "auditory",
    "time": {
      "samples": {
        "AcquisitionNumber": [
          1,
          2,
          3,
          4,
          5,
          6,
          7,
          8,
          9,
          10,
          11,
          12,
          13,
          14,
          15,
          16,
          17,
          18,
          19,
          20,
          21,
          22,
          23,
          24,
          25,
          26,
          27,
          28,
          29,
          30,
          31,
          32,
          33,
          34,
          35,
          36,
          37,
          38,
          39,
          40,
          41,
          42,
          43,
          44,
          45,
          46,
          47,
          48,
          49,
          50,
          51,
          52,
          53,
          54,
          55,
          56,
          57,
          58,
          59,
          60,
          61,
          62,
          63,
          64,
          65,
          66,
          67,
          68,
          69,
          70,
          71,
          72,
          73,
          74,
          75,
          76,
          77,
          78,
          79,
          80,
          81,
          82,
          83,
          84,
          85,
          86,
          87,
          88,
          89,
          90,
          91,
          92,
          93,
          94,
          95,
          96,
          97,
          98,
          99,
          100,
          101,
          102,
          103,
          104,
          105,
          106,
          107,
          108,
          109,
          110,
          111,
          112,
          113,
          114,
          115,
          116,
          117,
          118,
          119,
          120,
          121,
          122,
          123,
          124,
          125,
          126,
          127,
          128,
          129,
          130,
          131,
          132,
          133,
          134,
          135,
          136,
          137,
          138,
          139,
          140,
          141,
          142,
          143,
          144,
          145,
          146,
          147,
          148,
          149,
          150
        ],
        "AcquisitionTime": [
          "163212.252500",
          "163214.862500",
          "163217.472500",
          "163220.082500",
          "163222.695000",
          "163225.305000",
          "163227.915000",
          "163230.525000",
          "163233.135000",
          "163235.747500",
          "163238.357500",
          "163240.967500",
          "163243.577500",
          "163246.187500",
          "163248.797500",
          "163251.410000",
          "163254.020000",
          "163256.630000",
          "163259.240000",
          "163301.850000",
          "163304.460000",
          "163307.072500",
          "163309.682500",
          "163312.292500",
          "163314.902500",
          "163317.512500",
          "163320.125000",
          "163322.735000",
          "163325.345000",
          "163327.955000",
          "163330.565000",
          "163333.175000",
          "163335.787500",
          "163338.397500",
          "163341.007500",
          "163343.617500",
          "163346.227500",
          "163348.837500",
          "163351.450000",
          "163354.060000",
          "163356.670000",
          "163359.280000",
          "163401.890000",
          "163404.502500",
          "163407.112500",
          "163409.722500",
          "163412.332500",
          "163414.942500",
          "163417.552500",
          "163420.165000",
          "163422.775000",
          "163425.385000",
          "163427.995000",
          "163430.605000",
          "163433.215000",
          "163435.827500",
          "163438.437500",
          "163441.047500",
          "163443.657500",
          "163446.267500",
          "163448.880000",
          "163451.490000",
          "163454.100000",
          "163456.710000",
          "163459.320000",
          "163501.930000",
          "163504.542500",
          "163507.152500",
          "163509.762500",
          "163512.372500",
          "163514.982500",
          "163517.592500",
          "163520.205000",
          "163522.815000",
          "163525.425000",
          "163528.035000",
          "163530.645000",
          "163533.257500",
          "163535.867500",
          "163538.477500",
          "163541.087500",
          "163543.697500",
          "163546.307500",
          "163548.920000",
          "163551.530000",
          "163554.140000",
          "163556.750000",
          "163559.360000",
          "163601.970000",
          "163604.582500",
          "163607.192500",
          "163609.802500",
          "163612.412500",
          "163615.022500",
          "163617.635000",
          "163620.245000",
          "163622.855000",
          "163625.465000",
          "163628.075000",
          "163630.685000",
          "163633.297500",
          "163635.907500",
          "163638.517500",
          "163641.127500",
          "163643.737500",
          "163646.347500",
          "163648.960000",
          "163651.570000",
          "163654.180000",
          "163656.790000",
          "163659.400000",
          "163702.012500",
          "163704.622500",
          "163707.232500",
          "163709.842500",
          "163712.452500",
          "163715.062500",
          "163717.675000",
          "163720.285000",
          "163722.895000",
          "163725.505000",
          "163728.115000",
          "163730.727500",
          "163733.337500",
          "163735.947500",
          "163738.557500",
          "163741.167500",
          "163743.777500",
          "163746.390000",
          "163749.000000",
          "163751.610000",
          "163754.220000",
          "163756.830000",
          "163759.440000",
          "163802.052500",
          "163804.662500",
          "163807.272500",
          "163809.882500",
          "163812.492500",
          "163815.105000",
          "163817.715000",
          "163820.325000",
          "163822.935000",
          "163825.545000",
          "163828.155000",
          "163830.767500",
          "163833.377500",
          "163835.987500",
          "163838.597500",
          "163841.207500"
        ],
        "ContentTime": [
          "163221.828000",
          "163222.328000",
          "163222.828000",
          "163225.328000",
          "163227.828000",
          "163230.328000",
          "163233.328000",
          "163235.828000",
          "163238.328000",
          "163240.828000",
          "163243.328000",
          "163246.328000",
          "163248.828000",
          "163251.328000",
          "163253.828000",
          "163256.328000",
          "163259.328000",
          "163301.828000",
          "163304.328000",
          "163306.828000",
          "163309.328000",
          "163312.328000",
          "163314.828000",
          "163317.328000",
          "163319.828000",
          "163322.328000",
          "163325.328000",
          "163327.828000",
          "163330.328000",
          "163332.828000",
          "163335.328000",
          "163338.328000",
          "163340.828000",
          "163343.328000",
          "163345.828000",
          "163348.328000",
          "163351.328000",
          "163353.828000",
          "163356.328000",
          "163358.828000",
          "163401.328000",
          "163404.328000",
          "163406.828000",
          "163409.328000",
          "163411.828000",
          "163414.328000",
          "163417.328000",
          "163419.828000",
          "163422.328000",
          "163424.828000",
          "163427.328000",
          "163430.328000",
          "163432.828000",
          "163435.328000",
          "163437.828000",
          "163440.328000",
          "163443.328000",
          "163445.828000",
          "163448.328000",
          "163450.828000",
          "163453.328000",
          "163456.328000",
          "163458.828000",
          "163501.328000",
          "163503.828000",
          "163506.328000",
          "163509.328000",
          "163511.828000",
          "163514.328000",
          "163516.828000",
          "163519.328000",
          "163522.328000",
          "163524.828000",
          "163527.328000",
          "163529.828000",
          "163532.828000",
          "163535.328000",
          "163537.828000",
          "163540.328000",
          "163542.828000",
          "163545.328000",
          "163548.328000",
          "163550.828000",
          "163553.328000",
          "163555.828000",
          "163558.328000",
          "163601.328000",
          "163603.828000",
          "163606.328000",
          "163608.828000",
          "163611.328000",
          "163614.328000",
          "163616.828000",
          "163619.328000",
          "163621.828000",
          "163624.328000",
          "163627.328000",
          "163629.828000",
          "163632.328000",
          "163634.828000",
          "163637.328000",
          "163640.328000",
          "163642.828000",
          "163645.328000",
          "163647.828000",
          "163650.328000",
          "163653.328000",
          "163655.828000",
          "163658.328000",
          "163700.828000",
          "163703.328000",
          "163706.328000",
          "163708.828000",
          "163711.328000",
          "163713.828000",
          "163716.328000",
          "163719.328000",
          "163721.828000",
          "163724.328000",
          "163726.828000",
          "163729.328000",
          "163732.328000",
          "163734.828000",
          "163737.328000",
          "163739.828000",
          "163742.328000",
          "163745.328000",
          "163747.828000",
          "163750.328000",
          "163752.828000",
          "163755.328000",
          "163758.328000",
          "163800.828000",
          "163803.328000",
          "163805.828000",
          "163808.328000",
          "163811.328000",
          "163813.828000",
          "163816.328000",
          "163818.828000",
          "163821.328000",
          "163824.328000",
          "163826.828000",
          "163829.328000",
          "163831.828000",
          "163834.328000",
          "163837.328000",
          "163839.828000",
          "163842.328000",
          "163849.703000"
        ],
        "InstanceCreationTime": [
          "163221.828000",
          "163222.328000",
          "163222.828000",
          "163225.328000",
          "163227.828000",
          "163230.328000",
          "163233.328000",
          "163235.828000",
          "163238.328000",
          "163240.828000",
          "163243.328000",
          "163246.328000",
          "163248.828000",
          "163251.328000",
          "163253.828000",
          "163256.328000",
          "163259.328000",
          "163301.828000",
          "163304.328000",
          "163306.828000",
          "163309.328000",
          "163312.328000",
          "163314.828000",
          "163317.328000",
          "163319.828000",
          "163322.328000",
          "163325.328000",
          "163327.828000",
          "163330.328000",
          "163332.828000",
          "163335.328000",
          "163338.328000",
          "163340.828000",
          "163343.328000",
          "163345.828000",
          "163348.328000",
          "163351.328000",
          "163353.828000",
          "163356.328000",
          "163358.828000",
          "163401.328000",
          "163404.328000",
          "163406.828000",
          "163409.328000",
          "163411.828000",
          "163414.328000",
          "163417.328000",
          "163419.828000",
          "163422.328000",
          "163424.828000",
          "163427.328000",
          "163430.328000",
          "163432.828000",
          "163435.328000",
          "163437.828000",
          "163440.328000",
          "163443.328000",
          "163445.828000",
          "163448.328000",
          "163450.828000",
          "163453.328000",
          "163456.328000",
          "163458.828000",
          "163501.328000",
          "163503.828000",
          "163506.328000",
          "163509.328000",
          "163511.828000",
          "163514.328000",
          "163516.828000",
          "163519.328000",
          "163522.328000",
          "163524.828000",
          "163527.328000",
          "163529.828000",
          "163532.828000",
          "163535.328000",
          "163537.828000",
          "163540.328000",
          "163542.828000",
          "163545.328000",
          "163548.328000",
          "163550.828000",
          "163553.328000",
          "163555.828000",
          "163558.328000",
          "163601.328000",
          "163603.828000",
          "163606.328000",
          "163608.828000",
          "163611.328000",
          "163614.328000",
          "163616.828000",
          "163619.328000",
          "163621.828000",
          "163624.328000",
          "163627.328000",
          "163629.828000",
          "163632.328000",
          "163634.828000",
          "163637.328000",
          "163640.328000",
          "163642.828000",
          "163645.328000",
          "163647.828000",
          "163650.328000",
          "163653.328000",
          "163655.828000",
          "163658.328000",
          "163700.828000",
          "163703.328000",
          "163706.328000",
          "163708.828000",
          "163711.328000",
          "163713.828000",
          "163716.328000",
          "163719.328000",
          "163721.828000",
          "163724.328000",
          "163726.828000",
          "163729.328000",
          "163732.328000",
          "163734.828000",
          "163737.328000",
          "163739.828000",
          "163742.328000",
          "163745.328000",
          "163747.828000",
          "163750.328000",
          "163752.828000",
          "163755.328000",
          "163758.328000",
          "163800.828000",
          "163803.328000",
          "163805.828000",
          "163808.328000",
          "163811.328000",
          "163813.828000",
          "163816.328000",
          "163818.828000",
          "163821.328000",
          "163824.328000",
          "163826.828000",
          "163829.328000",
          "163831.828000",
          "163834.328000",
          "163837.328000",
          "163839.828000",
          "163842.328000",
          "163849.703000"
        ],
        "InstanceNumber": [
          1,
          2,
          3,
          4,
          5,
          6,
          7,
          8,
          9,
          10,
          11,
          12,
          13,
          14,
          15,
          16,
          17,
          18,
          19,
          20,
          21,
          22,
          23,
          24,
          25,
          26,
          27,
          28,
          29,
          30,
          31,
          32,
          33,
          34,
          35,
          36,
          37,
          38,
          39,
          40,
          41,
          42,
          43,
          44,
          45,
          46,
          47,
          48,
          49,
          50,
          51,
          52,
          53,
          54,
          55,
          56,
          57,
          58,
          59,
          60,
          61,
          62,
          63,
          64,
          65,
          66,
          67,
          68,
          69,
          70,
          71,
          72,
          73,
          74,
          75,
          76,
          77,
          78,
          79,
          80,
          81,
          82,
          83,
          84,
          85,
          86,
          87,
          88,
          89,
          90,
          91,
          92,
          93,
          94,
          95,
          96,
          97,
          98,
          99,
          100,
          101,
          102,
          103,
          104,
          105,
          106,
          107,
          108,
          109,
          110,
          111,
          112,
          113,
          114,
          115,
          116,
          117,
          118,
          119,
          120,
          121,
          122,
          123,
          124,
          125,
          126,
          127,
          128,
          129,
          130,
          131,
          132,
          133,
          134,
          135,
          136,
          137,
          138,
          139,
          140,
          141,
          142,
          143,
          144,
          145,
          146,
          147,
          148,
          149,
          150
        ],
        "WindowCenter": [
          819.0,
          818.0,
          818.0,
          818.0,
          820.0,
          818.0,
          816.0,
          816.0,
          817.0,
          818.0,
          818.0,
          817.0,
          817.0,
          818.0,
          818.0,
          817.0,
          817.0,
          817.0,
          817.0,
          817.0,
          817.0,
          817.0,
          818.0,
          818.0,
          818.0,
          817.0,
          817.0,
          817.0,
          817.0,
          817.0,
          817.0,
          818.0,
          817.0,
          817.0,
          820.0,
          818.0,
          816.0,
          817.0,
          818.0,
          818.0,
          818.0,
          818.0,
          818.0,
          818.0,
          818.0,
          818.0,
          818.0,
          819.0,
          819.0,
          818.0,
          819.0,
          819.0,
          819.0,
          818.0,
          817.0,
          818.0,
          819.0,
          819.0,
          818.0,
          818.0,
          819.0,
          819.0,
          819.0,
          818.0,
          817.0,
          817.0,
          817.0,
          818.0,
          817.0,
          816.0,
          817.0,
          816.0,
          816.0,
          817.0,
          818.0,
          818.0,
          818.0,
          817.0,
          817.0,
          817.0,
          818.0,
          817.0,
          817.0,
          819.0,
          819.0,
          818.0,
          816.0,
          817.0,
          818.0,
          819.0,
          818.0,
          818.0,
          818.0,
          817.0,
          816.0,
          817.0,
          817.0,
          816.0,
          816.0,
          818.0,
          818.0,
          817.0,
          818.0,
          817.0,
          817.0,
          817.0,
          816.0,
          816.0,
          816.0,
          817.0,
          818.0,
          818.0,
          818.0,
          817.0,
          817.0,
          816.0,
          818.0,
          818.0,
          818.0,
          817.0,
          817.0,
          817.0,
          817.0,
          816.0,
          818.0,
          819.0,
          819.0,
          818.0,
          818.0,
          818.0,
          819.0,
          818.0,
          818.0,
          818.0,
          817.0,
          818.0,
          818.0,
          818.0,
          818.0,
          818.0,
          819.0,
          819.0,
          817.0,
          817.0,
          820.0,
          820.0,
          817.0,
          816.0,
          816.0,
          816.0
        ],
        "WindowWidth": [
          1894.0,
          1889.0,
          1891.0,
          1893.0,
          1899.0,
          1890.0,
          1884.0,
          1882.0,
          1887.0,
          1890.0,
          1890.0,
          1887.0,
          1888.0,
          1891.0,
          1891.0,
          1889.0,
          1888.0,
          1887.0,
          1887.0,
          1887.0,
          1886.0,
          1889.0,
          1889.0,
          1890.0,
          1890.0,
          1887.0,
          1886.0,
          1887.0,
          1886.0,
          1886.0,
          1887.0,
          1888.0,
          1888.0,
          1890.0,
          1898.0,
          1891.0,
          1885.0,
          1887.0,
          1892.0,
          1893.0,
          1892.0,
          1891.0,
          1891.0,
          1891.0,
          1891.0,
          1890.0,
          1892.0,
          1894.0,
          1893.0,
          1892.0,
          1894.0,
          1894.0,
          1895.0,
          1892.0,
          1887.0,
          1890.0,
          1892.0,
          1894.0,
          1891.0,
          1889.0,
          1892.0,
          1893.0,
          1894.0,
          1891.0,
          1885.0,
          1889.0,
          1888.0,
          1892.0,
          1885.0,
          1882.0,
          1886.0,
          1882.0,
          1883.0,
          1886.0,
          1889.0,
          1889.0,
          1890.0,
          1887.0,
          1885.0,
          1886.0,
          1889.0,
          1886.0,
          1886.0,
          1893.0,
          1893.0,
          1890.0,
          1884.0,
          1886.0,
          1890.0,
          1892.0,
          1890.0,
          1892.0,
          1890.0,
          1888.0,
          1884.0,
          1887.0,
          1886.0,
          1884.0,
          1884.0,
          1890.0,
          1891.0,
          1888.0,
          1891.0,
          1885.0,
          1886.0,
          1885.0,
          1884.0,
          1884.0,
          1884.0,
          1887.0,
          1892.0,
          1891.0,
          1888.0,
          1886.0,
          1884.0,
          1883.0,
          1891.0,
          1889.0,
          1891.0,
          1887.0,
          1887.0,
          1884.0,
          1885.0,
          1883.0,
          1891.0,
          1895.0,
          1893.0,
          1890.0,
          1890.0,
          1891.0,
          1894.0,
          1892.0,
          1891.0,
          1890.0,
          1887.0,
          1889.0,
          1889.0,
          1889.0,
          1890.0,
          1891.0,
          1893.0,
          1893.0,
          1886.0,
          1887.0,
          1897.0,
          1895.0,
          1887.0,
          1883.0,
          1881.0,
          1883.0
        ]
      },
      "slices": {}
    }
  },
  "dummy_trs": 0,
  "dvars_nstd": 77.42497335328858,
  "dvars_std": 1.0920273383221477,
  "dvars_vstd": 1.018463577315436,
  "efc": 0.5336259652207324,
  "fber": 435.2259521484375,
  "fd_mean": 0.07471415812260385,
  "fd_num": 3,
  "fd_perc": 2.0,
  "fwhm_avg": 2.877971616385279,
  "fwhm_x": 2.826379098996461,
  "fwhm_y": 2.866890359350693,
  "fwhm_z": 2.9406453908086823,
  "gcor": 0.00255383,
  "gsr_x": -0.006455604452639818,
  "gsr_y": 0.05166848376393318,
  "provenance": {
    "md5sum": "9bb556433090fb09df71723e0272a5dc",
    "settings": {
      "fd_thres": 0.2,
      "testing": false
    },
    "software": "mriqc",
    "version": "23.0.1",
    "webapi_port": null,
    "webapi_url": "https://mriqc.nimh.nih.gov/api/v1"
  },
  "size_t": 150,
  "size_x": 188,
  "size_y": 188,
  "size_z": 46,
  "snr": 2.3889154790275686,
  "spacing_tr": 2.5999999046325684,
  "spacing_x": 1.0957447290420532,
  "spacing_y": 1.0957447290420532,
  "spacing_z": 1.100000023841858,
  "summary_bg_k": 74.51784397868066,
  "summary_bg_mad": 19.936057906914375,
  "summary_bg_mean": 78.93336486816406,
  "summary_bg_median": 44.686668395996094,
  "summary_bg_n": 1133340.0,
  "summary_bg_p05": 29.98000144958496,
  "summary_bg_p95": 228.30700454711945,
  "summary_bg_stdv": 107.81963348388672,
