{
  "aor": 0.0007287333333333333,
  "aqi": 0.015357552666666668,
  "bids_meta": {
    "AcquisitionMatrixPE": 188,
    "AcquisitionNumber": 1,
    "AcquisitionTime": "12:37:21.327500",
    "BandwidthPerPixelPhaseEncode": 19.46,
    "BaseResolution": 188,
    "CogAtlasID": "TODO",
    "ConversionSoftware": "dcm2niix",
    "ConversionSoftwareVersion": "v1.0.20180606 GCC4.8.5",
    "DelayTime": 1.2,
    "DerivedVendorReportedEchoSpacing": 0.000820013,
    "DeviceSerialNumber": "18930",
    "DwellTime": 1.9e-06,
    "EchoTime": 0.02,
    "EffectiveEchoSpacing": 0.000273338,
    "FlipAngle": 80,
    "ImageComments": "Unaliased_MB2_PE2",
    "ImageOrientationPatientDICOM": [
      0.999256,
      0.0139139,
      -0.0359721,
      -0.0378856,
      0.179273,
      -0.98307
    ],
    "ImageType": [
      "ORIGINAL",
      "PRIMARY",
      "M",
      "MB",
      "ND",
      "MOSAIC"
    ],
    "InPlanePhaseEncodingDirectionDICOM": "COL",
    "InstitutionAddress": "Oxfordlaan_55_Maastricht_22AAA2_Limburg_NL_6229_EV",
    "InstitutionName": "Scannexus",
    "InstitutionalDepartmentName": "MRI_7T",
    "MRAcquisitionType": "2D",
    "MagneticFieldStrength": 6.98,
    "Manufacturer": "Siemens",
    "ManufacturersModelName": "Investigational_Device_7T",
    "Modality": "MR",
    "MultibandAccelerationFactor": 2,
    "ParallelReductionFactorInPlane": 3,
    "PartialFourier": 0.75,
    "PatientPosition": "HFS",
    "PercentPhaseFOV": 100,
    "PhaseEncodingDirection": "j",
    "PhaseEncodingSteps": 141,
    "PhaseResolution": 1,
    "PixelBandwidth": 1400,
    "ProcedureStepDescription": "FeDem_Faruk",
    "ProtocolName": "cmrr_mbep2d_bold_AP_run7",
    "PulseSequenceDetails": "%CustomerSeq%_cmrr_mbep2d_bold",
    "ReceiveCoilName": "32Ch_Head_7T",
    "ReconMatrixPE": 188,
    "RepetitionTime": 2.6,
    "SAR": 0.0479218,
    "ScanOptions": "PFP_FS",
    "ScanningSequence": "EP",
    "SequenceName": "epfid2d1_188",
    "SequenceVariant": "SK_SS",
    "SeriesDescription": "cmrr_mbep2d_bold_AP_run7",
    "SeriesNumber": 19,
    "ShimSetting": [
      55,
      -15,
      448,
      370,
      -36,
      30,
      243,
      178
    ],
    "SliceThickness": 1.1,
    "SliceTiming": [
      0,
      0.735,
      0.0625,
      0.795,
      0.1225,
      0.8575,
      0.185,
      0.9175,
      0.245,
      0.98,
      0.3075,
      1.04,
      0.3675,
      1.1,
      0.43,
      1.1625,
      0.49,
      1.2225,
      0.55,
      1.285,
      0.6125,
      1.345,
      0.6725,
      0,
      0.735,
      0.0625,
      0.795,
      0.1225,
      0.8575,
      0.185,
      0.9175,
      0.245,
      0.98,
      0.3075,
      1.04,
      0.3675,
      1.1,
      0.43,
      1.1625,
      0.49,
      1.2225,
      0.55,
      1.285,
      0.6125,
      1.345,
      0.6725
    ],
    "SoftwareVersions": "syngo_MR_B17",
    "SpacingBetweenSlices": 1.1,
    "StationName": "MRC18930",
    "TaskName": "auditory",
    "TotalReadoutTime": 0.0511141,
    "TxRefAmp": 190,
    "dataset": "ds001942",
    "dcmmeta_affine": [
      [
        -1.0949294567108154,
        -0.04151299595832825,
        0.00795249454677105,
        105.62162017822266
      ],
      [
        -0.015246137045323849,
        0.19643795490264893,
        -1.0820709466934204,
        25.347135543823242
      ],
      [
        -0.03941621631383896,
        1.077193260192871,
        0.19763392210006714,
        -120.16474914550781
      ],
      [
        0.0,
        0.0,
        0.0,
        1.0
      ]
    ],
    "dcmmeta_reorient_transform": [
      [
        0.0,
        -1.0,
        0.0,
        187.0
      ],
      [
        1.0,
        0.0,
        0.0,
        0.0
      ],
      [
        0.0,
        0.0,
        1.0,
        0.0
      ],
      [
        0.0,
        0.0,
        0.0,
        1.0
      ]
    ],
    "dcmmeta_shape": [
      188,
      188,
      46,
      150
    ],
    "dcmmeta_slice_dim": 2,
    "dcmmeta_version": 0.6,
    "global": {
      "const": {
        "AcquisitionMatrix": [
          188,
          0,
          0,
          188
        ],
        "AngioFlag": "N",
        "BitsAllocated": 16,
        "BitsStored": 12,
        "Columns": 1316,
        "EchoNumbers": 1,
        "EchoTime": 20.0,
        "EchoTrainLength": 1,
        "FlipAngle": 80.0,
        "HighBit": 11,
        "ImageOrientationPatient": [
          0.99925592893624,
          0.01391394956493,
          -0.0359720793573,
          -0.0378856467098,
          0.17927346063987,
          -0.9830695316627
        ],
        "ImagePositionPatient": [
          -691.98555317959,
          -181.47085669729,
          711.03813114893
        ],
        "ImageType": [
          "ORIGINAL",
          "PRIMARY",
          "M",
          "MB",
          "ND",
          "MOSAIC"
        ],
        "ImagedNucleus": "1H",
        "ImagingFrequency": 297.205667,
        "InPlanePhaseEncodingDirection": "COL",
        "MRAcquisitionType": "2D",
        "MagneticFieldStrength": 6.98,
        "Manufacturer": "SIEMENS",
        "ManufacturerModelName": "Investigational_Device_7T",
        "Modality": "MR",
        "NumberOfAverages": 1.0,
        "NumberOfPhaseEncodingSteps": 141,
        "PercentPhaseFieldOfView": 100.0,
        "PercentSampling": 100.0,
        "PerformedProcedureStepStartTime": "111727.156000",
        "PhotometricInterpretation": "MONOCHROME2",
        "PixelBandwidth": 1400.0,
        "PixelRepresentation": 0,
        "PixelSpacing": [
          1.0957447290421,
          1.0957447290421
        ],
        "ProtocolName": "cmrr_mbep2d_bold_AP_run7",
        "RepetitionTime": 2600.0,
        "Rows": 1316,
        "SAR": 0.0479218070258,
        "SamplesPerPixel": 1,
        "ScanOptions": [
          "PFP",
          "FS"
        ],
        "ScanningSequence": "EP",
        "SequenceName": "epfid2d1_188",
        "SequenceVariant": [
          "SK",
          "SS"
        ],
        "SeriesDescription": "cmrr_mbep2d_bold_AP_run7",
        "SeriesNumber": 19,
        "SeriesTime": "123730.062000",
        "SliceLocation": -45.76006893791,
        "SliceThickness": 1.1000000238419,
        "SmallestImagePixelValue": 0,
        "SoftwareVersions": "syngo MR B17",
        "SpacingBetweenSlices": 1.0999999810911,
        "SpecificCharacterSet": "ISO_IR 100",
        "StudyID": "1",
        "StudyTime": "111727.046000",
        "TransmitCoilName": "32Ch_Head_7T",
        "VariableFlipAngleFlag": "N",
        "WindowCenterWidthExplanation": "Algo1",
        "dBdt": 0.0
      },
      "slices": {}
    },
    "modality": "bold",
    "run_id": 7,
    "session_id": "SES02",
    "subject_id": "S07",
    "task_id": "auditory",
    "time": {
      "samples": {
        "AcquisitionNumber": [
          1,
          2,
          3,
          4,
          5,
          6,
          7,
          8,
          9,
          10,
          11,
          12,
          13,
          14,
          15,
          16,
          17,
          18,
          19,
          20,
          21,
          22,
          23,
          24,
          25,
          26,
          27,
          28,
          29,
          30,
          31,
          32,
          33,
          34,
          35,
          36,
          37,
          38,
          39,
          40,
          41,
          42,
          43,
          44,
          45,
          46,
          47,
          48,
          49,
          50,
          51,
          52,
          53,
          54,
          55,
          56,
          57,
          58,
          59,
          60,
          61,
          62,
          63,
          64,
          65,
          66,
          67,
          68,
          69,
          70,
          71,
          72,
          73,
          74,
          75,
          76,
          77,
          78,
          79,
          80,
          81,
          82,
          83,
          84,
          85,
          86,
          87,
          88,
          89,
          90,
          91,
          92,
          93,
          94,
          95,
          96,
          97,
          98,
          99,
          100,
          101,
          102,
          103,
          104,
          105,
          106,
          107,
          108,
          109,
          110,
          111,
          112,
          113,
          114,
          115,
          116,
          117,
          118,
          119,
          120,
          121,
          122,
          123,
          124,
          125,
          126,
          127,
          128,
          129,
          130,
          131,
          132,
          133,
          134,
          135,
          136,
          137,
          138,
          139,
          140,
          141,
          142,
          143,
          144,
          145,
          146,
          147,
          148,
          149,
          150
        ],
        "AcquisitionTime": [
          "123721.327500",
          "123723.940000",
          "123726.550000",
          "123729.160000",
          "123731.770000",
          "123734.380000",
          "123736.992500",
          "123739.602500",
          "123742.212500",
          "123744.822500",
          "123747.432500",
          "123750.042500",
          "123752.655000",
          "123755.265000",
          "123757.875000",
          "123800.485000",
          "123803.095000",
          "123805.705000",
          "123808.317500",
          "123810.927500",
          "123813.537500",
          "123816.147500",
          "123818.757500",
          "123821.370000",
          "123823.980000",
          "123826.590000",
          "123829.200000",
          "123831.810000",
          "123834.420000",
          "123837.032500",
          "123839.642500",
          "123842.252500",
          "123844.862500",
          "123847.472500",
          "123850.082500",
          "123852.695000",
          "123855.305000",
          "123857.915000",
          "123900.525000",
          "123903.135000",
          "123905.747500",
          "123908.357500",
          "123910.967500",
          "123913.577500",
          "123916.187500",
          "123918.797500",
          "123921.410000",
          "123924.020000",
          "123926.630000",
          "123929.240000",
          "123931.850000",
          "123934.460000",
          "123937.072500",
          "123939.682500",
          "123942.292500",
          "123944.902500",
          "123947.512500",
          "123950.125000",
          "123952.735000",
          "123955.345000",
          "123957.955000",
          "124000.565000",
          "124003.175000",
          "124005.787500",
          "124008.397500",
          "124011.007500",
          "124013.617500",
          "124016.227500",
          "124018.837500",
          "124021.450000",
          "124024.060000",
          "124026.670000",
          "124029.280000",
          "124031.890000",
          "124034.502500",
          "124037.112500",
          "124039.722500",
          "124042.332500",
          "124044.942500",
          "124047.552500",
          "124050.165000",
          "124052.775000",
          "124055.385000",
          "124057.995000",
          "124100.605000",
          "124103.215000",
          "124105.827500",
          "124108.437500",
          "124111.047500",
          "124113.657500",
          "124116.267500",
          "124118.880000",
          "124121.490000",
          "124124.100000",
          "124126.710000",
          "124129.320000",
          "124131.930000",
          "124134.542500",
          "124137.152500",
          "124139.762500",
          "124142.372500",
          "124144.982500",
          "124147.592500",
          "124150.205000",
          "124152.815000",
          "124155.425000",
          "124158.035000",
          "124200.645000",
          "124203.257500",
          "124205.867500",
          "124208.477500",
          "124211.087500",
          "124213.697500",
          "124216.307500",
          "124218.920000",
          "124221.530000",
          "124224.140000",
          "124226.750000",
          "124229.360000",
          "124231.972500",
          "124234.582500",
          "124237.192500",
          "124239.802500",
          "124242.412500",
          "124245.022500",
          "124247.635000",
          "124250.245000",
          "124252.855000",
          "124255.465000",
          "124258.075000",
          "124300.685000",
          "124303.297500",
          "124305.907500",
          "124308.517500",
          "124311.127500",
          "124313.737500",
          "124316.350000",
          "124318.960000",
          "124321.570000",
          "124324.180000",
          "124326.790000",
          "124329.400000",
          "124332.012500",
          "124334.622500",
          "124337.232500",
          "124339.842500",
          "124342.452500",
          "124345.062500",
          "124347.675000",
          "124350.285000"
        ],
        "ContentTime": [
          "123730.078000",
          "123731.062000",
          "123731.078000",
          "123733.062000",
          "123735.562000",
          "123738.062000",
          "123741.062000",
          "123743.562000",
          "123746.062000",
          "123748.562000",
          "123751.562000",
          "123754.062000",
          "123756.562000",
          "123759.062000",
          "123801.562000",
          "123804.062000",
          "123807.062000",
          "123809.562000",
          "123812.062000",
          "123814.562000",
          "123817.562000",
          "123820.062000",
          "123822.578000",
          "123825.078000",
          "123827.562000",
          "123830.062000",
          "123833.062000",
          "123835.562000",
          "123838.062000",
          "123840.562000",
          "123843.562000",
          "123846.062000",
          "123848.562000",
          "123851.062000",
          "123853.578000",
          "123856.562000",
          "123859.062000",
          "123901.562000",
          "123904.062000",
          "123906.562000",
          "123909.062000",
          "123912.062000",
          "123914.562000",
          "123917.062000",
          "123919.562000",
          "123922.078000",
          "123925.062000",
          "123927.562000",
          "123930.062000",
          "123932.562000",
          "123935.062000",
          "123938.062000",
          "123940.562000",
          "123943.062000",
          "123945.562000",
          "123948.062000",
          "123951.062000",
          "123953.562000",
          "123956.062000",
          "123958.562000",
          "124001.062000",
          "124004.062000",
          "124006.562000",
          "124009.062000",
          "124011.562000",
          "124014.062000",
          "124017.062000",
          "124019.562000",
          "124022.062000",
          "124024.562000",
          "124027.062000",
          "124030.062000",
          "124032.562000",
          "124035.062000",
          "124037.562000",
          "124040.062000",
          "124043.062000",
          "124045.562000",
          "124048.062000",
          "124050.562000",
          "124053.062000",
          "124056.062000",
          "124058.562000",
          "124101.062000",
          "124103.562000",
          "124106.062000",
          "124109.062000",
          "124111.562000",
          "124114.062000",
          "124116.562000",
          "124119.562000",
          "124122.062000",
          "124124.562000",
          "124127.062000",
          "124129.562000",
          "124132.562000",
          "124135.062000",
          "124137.578000",
          "124140.062000",
          "124142.562000",
          "124145.062000",
          "124148.062000",
          "124150.562000",
          "124153.062000",
          "124155.562000",
          "124158.062000",
          "124201.062000",
          "124203.562000",
          "124206.062000",
          "124208.562000",
          "124211.062000",
          "124214.062000",
          "124216.562000",
          "124219.062000",
          "124221.562000",
          "124224.062000",
          "124227.062000",
          "124229.562000",
          "124232.062000",
          "124234.562000",
          "124237.562000",
          "124240.062000",
          "124242.562000",
          "124245.078000",
          "124247.562000",
          "124250.062000",
          "124253.062000",
          "124255.562000",
          "124258.062000",
          "124300.562000",
          "124303.562000",
          "124306.078000",
          "124308.562000",
          "124311.062000",
          "124313.562000",
          "124316.062000",
          "124319.062000",
          "124321.562000",
          "124324.062000",
          "124326.562000",
          "124329.562000",
          "124332.062000",
          "124334.562000",
          "124337.062000",
          "124339.562000",
          "124342.562000",
          "124345.062000",
          "124347.562000",
          "124350.062000",
          "124357.437000"
        ],
        "InstanceCreationTime": [
          "123730.078000",
          "123731.062000",
          "123731.078000",
          "123733.062000",
          "123735.562000",
          "123738.062000",
          "123741.062000",
          "123743.562000",
          "123746.062000",
          "123748.562000",
          "123751.562000",
          "123754.062000",
          "123756.562000",
          "123759.062000",
          "123801.562000",
          "123804.062000",
          "123807.062000",
          "123809.562000",
          "123812.062000",
          "123814.562000",
          "123817.562000",
          "123820.062000",
          "123822.578000",
          "123825.078000",
          "123827.562000",
          "123830.062000",
          "123833.062000",
          "123835.562000",
          "123838.062000",
          "123840.562000",
          "123843.562000",
          "123846.062000",
          "123848.562000",
          "123851.062000",
          "123853.578000",
          "123856.562000",
          "123859.062000",
          "123901.562000",
          "123904.062000",
          "123906.562000",
          "123909.062000",
          "123912.062000",
          "123914.562000",
          "123917.062000",
          "123919.562000",
          "123922.078000",
          "123925.062000",
          "123927.562000",
          "123930.062000",
          "123932.562000",
          "123935.062000",
          "123938.062000",
          "123940.562000",
          "123943.062000",
          "123945.562000",
          "123948.062000",
          "123951.062000",
          "123953.562000",
          "123956.062000",
          "123958.562000",
          "124001.062000",
          "124004.062000",
          "124006.562000",
          "124009.062000",
          "124011.562000",
          "124014.062000",
          "124017.062000",
          "124019.562000",
          "124022.062000",
          "124024.562000",
          "124027.062000",
          "124030.062000",
          "124032.562000",
          "124035.062000",
          "124037.562000",
          "124040.062000",
          "124043.062000",
          "124045.562000",
          "124048.062000",
          "124050.562000",
          "124053.062000",
          "124056.062000",
          "124058.562000",
          "124101.062000",
          "124103.562000",
          "124106.062000",
          "124109.062000",
          "124111.562000",
          "124114.062000",
          "124116.562000",
          "124119.562000",
          "124122.062000",
          "124124.562000",
          "124127.062000",
          "124129.562000",
          "124132.562000",
          "124135.062000",
          "124137.578000",
          "124140.062000",
          "124142.562000",
          "124145.062000",
          "124148.062000",
          "124150.562000",
          "124153.062000",
          "124155.562000",
          "124158.062000",
          "124201.062000",
          "124203.562000",
          "124206.062000",
          "124208.562000",
          "124211.062000",
          "124214.062000",
          "124216.562000",
          "124219.062000",
          "124221.562000",
          "124224.062000",
          "124227.062000",
          "124229.562000",
          "124232.062000",
          "124234.562000",
          "124237.562000",
          "124240.062000",
          "124242.562000",
          "124245.078000",
          "124247.562000",
          "124250.062000",
          "124253.062000",
          "124255.562000",
          "124258.062000",
          "124300.562000",
          "124303.562000",
          "124306.078000",
          "124308.562000",
          "124311.062000",
          "124313.562000",
          "124316.062000",
          "124319.062000",
          "124321.562000",
          "124324.062000",
          "124326.562000",
          "124329.562000",
          "124332.062000",
          "124334.562000",
          "124337.062000",
          "124339.562000",
          "124342.562000",
          "124345.062000",
          "124347.562000",
          "124350.062000",
          "124357.437000"
        ],
        "InstanceNumber": [
          1,
          2,
          3,
          4,
          5,
          6,
          7,
          8,
          9,
          10,
          11,
          12,
          13,
          14,
          15,
          16,
          17,
          18,
          19,
          20,
          21,
          22,
          23,
          24,
          25,
          26,
          27,
          28,
          29,
          30,
          31,
          32,
          33,
          34,
          35,
          36,
          37,
          38,
          39,
          40,
          41,
          42,
          43,
          44,
          45,
          46,
          47,
          48,
          49,
          50,
          51,
          52,
          53,
          54,
          55,
          56,
          57,
          58,
          59,
          60,
          61,
          62,
          63,
          64,
          65,
          66,
          67,
          68,
          69,
          70,
          71,
          72,
          73,
          74,
          75,
          76,
          77,
          78,
          79,
          80,
          81,
          82,
          83,
          84,
          85,
          86,
          87,
          88,
          89,
          90,
          91,
          92,
          93,
          94,
          95,
          96,
          97,
          98,
          99,
          100,
          101,
          102,
          103,
          104,
          105,
          106,
          107,
          108,
          109,
          110,
          111,
          112,
          113,
          114,
          115,
          116,
          117,
          118,
          119,
          120,
          121,
          122,
          123,
          124,
          125,
          126,
          127,
          128,
          129,
          130,
          131,
          132,
          133,
          134,
          135,
          136,
          137,
          138,
          139,
          140,
          141,
          142,
          143,
          144,
          145,
          146,
          147,
          148,
          149,
          150
        ],
        "LargestImagePixelValue": [
          4095,
          4095,
          4095,
          4095,
          4095,
          4095,
          4095,
          4095,
          4095,
          4095,
          4095,
          4095,
          4095,
          4095,
          4095,
          4095,
          4095,
          4095,
          4095,
          4095,
          4095,
          4095,
          4095,
          4095,
          4095,
          4095,
          4095,
          4095,
          4095,
          4095,
          4095,
          4095,
          4095,
          4095,
          4095,
          4095,
          4095,
          4095,
          4095,
          4095,
          4095,
          4095,
          4095,
          4095,
          4095,
          4095,
          4095,
          4095,
          4095,
          4095,
          4095,
          4095,
          4095,
          4095,
          4095,
          4095,
          4095,
          4095,
          4095,
          4095,
          4095,
          4095,
          4095,
          4058,
          4095,
          4095,
          4078,
          4095,
          4095,
          4076,
          4095,
          4095,
          4095,
          4095,
          4095,
          4014,
          4044,
          4095,
          4059,
          4095,
          4024,
          4092,
          4095,
          4095,
          4095,
          4095,
          4095,
          4095,
          3979,
          4095,
          4081,
          4095,
          4095,
          4022,
          4095,
          4095,
          4095,
          4095,
          4095,
          4095,
          4095,
          3919,
          4095,
          4095,
          4095,
          4095,
          4086,
          4061,
          4092,
          4095,
          4095,
          4056,
          4074,
          4095,
          4095,
          4043,
          4095,
          4095,
          4095,
          4095,
          4095,
          4095,
          4033,
          4095,
          4095,
          4095,
          4095,
          4088,
          4095,
          4095,
          4095,
          4095,
          3986,
          4001,
          4095,
          4095,
          4095,
          4095,
          4095,
          4068,
          4053,
          4095,
          4039,
          4068,
          4095,
          4095,
          4095,
          4095,
          4095,
          4095
        ],
        "WindowCenter": [
          784.0,
          783.0,
          784.0,
          784.0,
          782.0,
          782.0,
          784.0,
          784.0,
          783.0,
          784.0,
          785.0,
          783.0,
          782.0,
          784.0,
          785.0,
          783.0,
          783.0,
          784.0,
          783.0,
          783.0,
          783.0,
          784.0,
          785.0,
          784.0,
          783.0,
          783.0,
          783.0,
          783.0,
          784.0,
          783.0,
          784.0,
          784.0,
          785.0,
          785.0,
          785.0,
          785.0,
          784.0,
          784.0,
          786.0,
          785.0,
          784.0,
          783.0,
          784.0,
          782.0,
          783.0,
          785.0,
          784.0,
          784.0,
          785.0,
          785.0,
          786.0,
          784.0,
          784.0,
          784.0,
          784.0,
          783.0,
          782.0,
          784.0,
          785.0,
          784.0,
          784.0,
          784.0,
          786.0,
          787.0,
          785.0,
          782.0,
          782.0,
          782.0,
          781.0,
          783.0,
          784.0,
          782.0,
          782.0,
          784.0,
          785.0,
          787.0,
          787.0,
          786.0,
          781.0,
          781.0,
          783.0,
          784.0,
          783.0,
          783.0,
          784.0,
          785.0,
          784.0,
          785.0,
          787.0,
          785.0,
          783.0,
          784.0,
          786.0,
          784.0,
          783.0,
          783.0,
          783.0,
          784.0,
          783.0,
          784.0,
          785.0,
          786.0,
          785.0,
          783.0,
          784.0,
          783.0,
          782.0,
          783.0,
          783.0,
          783.0,
          783.0,
          784.0,
          784.0,
          784.0,
          787.0,
          784.0,
          783.0,
          783.0,
          783.0,
          784.0,
          786.0,
          785.0,
          785.0,
          783.0,
          783.0,
          783.0,
          786.0,
          786.0,
          784.0,
          784.0,
          784.0,
          783.0,
          784.0,
          786.0,
          785.0,
          783.0,
          782.0,
          782.0,
          783.0,
          785.0,
          783.0,
          783.0,
          784.0,
          785.0,
          783.0,
          781.0,
          780.0,
          783.0,
          785.0,
          784.0
        ],
        "WindowWidth": [
          1717.0,
          1712.0,
          1717.0,
          1715.0,
          1711.0,
          1710.0,
          1718.0,
          1716.0,
          1712.0,
          1715.0,
          1720.0,
          1712.0,
          1711.0,
          1716.0,
          1718.0,
          1713.0,
          1715.0,
          1716.0,
          1714.0,
          1713.0,
          1713.0,
          1717.0,
          1719.0,
          1716.0,
          1714.0,
          1713.0,
          1714.0,
          1713.0,
          1716.0,
          1714.0,
          1716.0,
          1716.0,
          1718.0,
          1719.0,
          1720.0,
          1721.0,
          1716.0,
          1716.0,
          1722.0,
          1717.0,
          1715.0,
          1714.0,
          1714.0,
          1711.0,
          1714.0,
          1719.0,
          1716.0,
          1717.0,
          1718.0,
          1720.0,
          1721.0,
          1717.0,
          1716.0,
          1716.0,
          1716.0,
          1714.0,
          1711.0,
          1715.0,
          1720.0,
          1716.0,
          1716.0,
          1715.0,
          1722.0,
          1726.0,
          1719.0,
          1709.0,
          1709.0,
          1709.0,
          1706.0,
          1713.0,
          1716.0,
          1710.0,
          1711.0,
          1715.0,
          1721.0,
          1727.0,
          1725.0,
          1721.0,
          1708.0,
          1707.0,
          1712.0,
          1714.0,
          1712.0,
          1712.0,
          1717.0,
          1719.0,
          1716.0,
          1718.0,
