{
  "aor": 0.0007016666666666666,
  "aqi": 0.015637847333333333,
  "bids_meta": {
    "AcquisitionMatrixPE": 188,
    "AcquisitionNumber": 1,
    "AcquisitionTime": "11:47:47.185000",
    "BandwidthPerPixelPhaseEncode": 19.46,
    "BaseResolution": 188,
    "ConversionSoftware": "dcm2niix",
    "ConversionSoftwareVersion": "v1.0.20180606 GCC4.8.5",
    "DelayTime": 1.2,
    "DerivedVendorReportedEchoSpacing": 0.000820013,
    "DeviceSerialNumber": "18930",
    "DwellTime": 1.9e-06,
    "EchoTime": 0.02,
    "EffectiveEchoSpacing": 0.000273338,
    "FlipAngle": 80,
    "ImageComments": "Unaliased_MB2_PE2",
    "ImageOrientationPatientDICOM": [
      0.999256,
      0.0139139,
      -0.0359721,
      -0.0378856,
      0.179273,
      -0.98307
    ],
    "ImageType": [
      "ORIGINAL",
      "PRIMARY",
      "M",
      "MB",
      "ND",
      "MOSAIC"
    ],
    "InPlanePhaseEncodingDirectionDICOM": "COL",
    "InstitutionAddress": "Oxfordlaan_55_Maastricht_22AAA2_Limburg_NL_6229_EV",
    "InstitutionName": "Scannexus",
    "InstitutionalDepartmentName": "MRI_7T",
    "MRAcquisitionType": "2D",
    "MagneticFieldStrength": 6.98,
    "Manufacturer": "Siemens",
    "ManufacturersModelName": "Investigational_Device_7T",
    "Modality": "MR",
    "MultibandAccelerationFactor": 2,
    "ParallelReductionFactorInPlane": 3,
    "PartialFourier": 0.75,
    "PatientPosition": "HFS",
    "PercentPhaseFOV": 100,
    "PhaseEncodingDirection": "j",
    "PhaseEncodingSteps": 141,
    "PhaseResolution": 1,
    "PixelBandwidth": 1400,
    "ProcedureStepDescription": "FeDem_Faruk",
    "ProtocolName": "cmrr_mbep2d_bold_AP_run1",
    "PulseSequenceDetails": "%CustomerSeq%_cmrr_mbep2d_bold",
    "ReceiveCoilName": "32Ch_Head_7T",
    "ReconMatrixPE": 188,
    "RepetitionTime": 2.6,
    "SAR": 0.0482001,
    "ScanOptions": "PFP_FS",
    "ScanningSequence": "EP",
    "SequenceName": "epfid2d1_188",
    "SequenceVariant": "SK_SS",
    "SeriesDescription": "cmrr_mbep2d_bold_AP_run1",
    "SeriesNumber": 11,
    "ShimSetting": [
      55,
      -15,
      448,
      370,
      -36,
      30,
      243,
      178
    ],
    "SliceThickness": 1.1,
    "SliceTiming": [
      0,
      0.7325,
      0.06,
      0.795,
      0.1225,
      0.855,
      0.1825,
      0.915,
      0.245,
      0.9775,
      0.305,
      1.0375,
      0.365,
      1.1,
      0.4275,
      1.16,
      0.4875,
      1.2225,
      0.55,
      1.2825,
      0.61,
      1.3425,
      0.6725,
      0,
      0.7325,
      0.06,
      0.795,
      0.1225,
      0.855,
      0.1825,
      0.915,
      0.245,
      0.9775,
      0.305,
      1.0375,
      0.365,
      1.1,
      0.4275,
      1.16,
      0.4875,
      1.2225,
      0.55,
      1.2825,
      0.61,
      1.3425,
      0.6725
    ],
    "SoftwareVersions": "syngo_MR_B17",
    "SpacingBetweenSlices": 1.1,
    "StationName": "MRC18930",
    "TaskName": "auditory",
    "TotalReadoutTime": 0.0511141,
    "TxRefAmp": 190,
    "dataset": "ds001942",
    "dcmmeta_affine": [
      [
        -1.0949294567108154,
        -0.04151299595832825,
        0.00795249454677105,
        105.62162017822266
      ],
      [
        -0.015246137045323849,
        0.19643795490264893,
        -1.0820709466934204,
        25.347135543823242
      ],
      [
        -0.03941621631383896,
        1.077193260192871,
        0.19763392210006714,
        -120.16474914550781
      ],
      [
        0.0,
        0.0,
        0.0,
        1.0
      ]
    ],
    "dcmmeta_reorient_transform": [
      [
        0.0,
        -1.0,
        0.0,
        187.0
      ],
      [
        1.0,
        0.0,
        0.0,
        0.0
      ],
      [
        0.0,
        0.0,
        1.0,
        0.0
      ],
      [
        0.0,
        0.0,
        0.0,
        1.0
      ]
    ],
    "dcmmeta_shape": [
      188,
      188,
      46,
      150
    ],
    "dcmmeta_slice_dim": 2,
    "dcmmeta_version": 0.6,
    "global": {
      "const": {
        "AcquisitionMatrix": [
          188,
          0,
          0,
          188
        ],
        "AngioFlag": "N",
        "BitsAllocated": 16,
        "BitsStored": 12,
        "Columns": 1316,
        "EchoNumbers": 1,
        "EchoTime": 20.0,
        "EchoTrainLength": 1,
        "FlipAngle": 80.0,
        "HighBit": 11,
        "ImageOrientationPatient": [
          0.99925592893624,
          0.01391394956493,
          -0.0359720793573,
          -0.0378856467098,
          0.17927346063987,
          -0.9830695316627
        ],
        "ImagePositionPatient": [
          -691.98555317959,
          -181.47085669729,
          711.03813114893
        ],
        "ImageType": [
          "ORIGINAL",
          "PRIMARY",
          "M",
          "MB",
          "ND",
          "MOSAIC"
        ],
        "ImagedNucleus": "1H",
        "ImagingFrequency": 297.205635,
        "InPlanePhaseEncodingDirection": "COL",
        "MRAcquisitionType": "2D",
        "MagneticFieldStrength": 6.98,
        "Manufacturer": "SIEMENS",
        "ManufacturerModelName": "Investigational_Device_7T",
        "Modality": "MR",
        "NumberOfAverages": 1.0,
        "NumberOfPhaseEncodingSteps": 141,
        "PercentPhaseFieldOfView": 100.0,
        "PercentSampling": 100.0,
        "PerformedProcedureStepStartTime": "111727.156000",
        "PhotometricInterpretation": "MONOCHROME2",
        "PixelBandwidth": 1400.0,
        "PixelRepresentation": 0,
        "PixelSpacing": [
          1.0957447290421,
          1.0957447290421
        ],
        "ProtocolName": "cmrr_mbep2d_bold_AP_run1",
        "RepetitionTime": 2600.0,
        "Rows": 1316,
        "SAR": 0.04820009125706,
        "SamplesPerPixel": 1,
        "ScanOptions": [
          "PFP",
          "FS"
        ],
        "ScanningSequence": "EP",
        "SequenceName": "epfid2d1_188",
        "SequenceVariant": [
          "SK",
          "SS"
        ],
        "SeriesDescription": "cmrr_mbep2d_bold_AP_run1",
        "SeriesNumber": 11,
        "SeriesTime": "114755.687000",
        "SliceLocation": -45.76006893791,
        "SliceThickness": 1.1000000238419,
        "SmallestImagePixelValue": 0,
        "SoftwareVersions": "syngo MR B17",
        "SpacingBetweenSlices": 1.0999999810911,
        "SpecificCharacterSet": "ISO_IR 100",
        "StudyID": "1",
        "StudyTime": "111727.046000",
        "TransmitCoilName": "32Ch_Head_7T",
        "VariableFlipAngleFlag": "N",
        "WindowCenterWidthExplanation": "Algo1",
        "dBdt": 0.0
      },
      "slices": {}
    },
    "modality": "bold",
    "run_id": 1,
    "session_id": "SES02",
    "subject_id": "S07",
    "task_id": "auditory",
    "time": {
      "samples": {
        "AcquisitionNumber": [
          1,
          2,
          3,
          4,
          5,
          6,
          7,
          8,
          9,
          10,
          11,
          12,
          13,
          14,
          15,
          16,
          17,
          18,
          19,
          20,
          21,
          22,
          23,
          24,
          25,
          26,
          27,
          28,
          29,
          30,
          31,
          32,
          33,
          34,
          35,
          36,
          37,
          38,
          39,
          40,
          41,
          42,
          43,
          44,
          45,
          46,
          47,
          48,
          49,
          50,
          51,
          52,
          53,
          54,
          55,
          56,
          57,
          58,
          59,
          60,
          61,
          62,
          63,
          64,
          65,
          66,
          67,
          68,
          69,
          70,
          71,
          72,
          73,
          74,
          75,
          76,
          77,
          78,
          79,
          80,
          81,
          82,
          83,
          84,
          85,
          86,
          87,
          88,
          89,
          90,
          91,
          92,
          93,
          94,
          95,
          96,
          97,
          98,
          99,
          100,
          101,
          102,
          103,
          104,
          105,
          106,
          107,
          108,
          109,
          110,
          111,
          112,
          113,
          114,
          115,
          116,
          117,
          118,
          119,
          120,
          121,
          122,
          123,
          124,
          125,
          126,
          127,
          128,
          129,
          130,
          131,
          132,
          133,
          134,
          135,
          136,
          137,
          138,
          139,
          140,
          141,
          142,
          143,
          144,
          145,
          146,
          147,
          148,
          149,
          150
        ],
        "AcquisitionTime": [
          "114747.185000",
          "114749.795000",
          "114752.405000",
          "114755.015000",
          "114757.625000",
          "114800.237500",
          "114802.847500",
          "114805.457500",
          "114808.067500",
          "114810.677500",
          "114813.290000",
          "114815.900000",
          "114818.510000",
          "114821.120000",
          "114823.730000",
          "114826.340000",
          "114828.952500",
          "114831.562500",
          "114834.172500",
          "114836.782500",
          "114839.392500",
          "114842.002500",
          "114844.615000",
          "114847.225000",
          "114849.835000",
          "114852.445000",
          "114855.055000",
          "114857.667500",
          "114900.277500",
          "114902.887500",
          "114905.497500",
          "114908.107500",
          "114910.717500",
          "114913.330000",
          "114915.940000",
          "114918.550000",
          "114921.160000",
          "114923.770000",
          "114926.380000",
          "114928.992500",
          "114931.602500",
          "114934.212500",
          "114936.822500",
          "114939.432500",
          "114942.045000",
          "114944.655000",
          "114947.265000",
          "114949.875000",
          "114952.485000",
          "114955.095000",
          "114957.707500",
          "115000.317500",
          "115002.927500",
          "115005.537500",
          "115008.147500",
          "115010.757500",
          "115013.370000",
          "115015.980000",
          "115018.590000",
          "115021.200000",
          "115023.810000",
          "115026.422500",
          "115029.032500",
          "115031.642500",
          "115034.252500",
          "115036.862500",
          "115039.472500",
          "115042.085000",
          "115044.695000",
          "115047.305000",
          "115049.915000",
          "115052.525000",
          "115055.135000",
          "115057.747500",
          "115100.357500",
          "115102.967500",
          "115105.577500",
          "115108.187500",
          "115110.800000",
          "115113.410000",
          "115116.020000",
          "115118.630000",
          "115121.240000",
          "115123.850000",
          "115126.462500",
          "115129.072500",
          "115131.682500",
          "115134.292500",
          "115136.902500",
          "115139.515000",
          "115142.125000",
          "115144.735000",
          "115147.345000",
          "115149.955000",
          "115152.565000",
          "115155.177500",
          "115157.787500",
          "115200.397500",
          "115203.007500",
          "115205.617500",
          "115208.227500",
          "115210.840000",
          "115213.450000",
          "115216.060000",
          "115218.670000",
          "115221.280000",
          "115223.892500",
          "115226.502500",
          "115229.112500",
          "115231.722500",
          "115234.332500",
          "115236.942500",
          "115239.555000",
          "115242.165000",
          "115244.775000",
          "115247.385000",
          "115249.995000",
          "115252.605000",
          "115255.217500",
          "115257.827500",
          "115300.437500",
          "115303.047500",
          "115305.657500",
          "115308.270000",
          "115310.880000",
          "115313.490000",
          "115316.100000",
          "115318.710000",
          "115321.320000",
          "115323.932500",
          "115326.542500",
          "115329.152500",
          "115331.762500",
          "115334.372500",
          "115336.982500",
          "115339.595000",
          "115342.205000",
          "115344.815000",
          "115347.425000",
          "115350.035000",
          "115352.647500",
          "115355.257500",
          "115357.867500",
          "115400.477500",
          "115403.087500",
          "115405.697500",
          "115408.310000",
          "115410.920000",
          "115413.530000",
          "115416.140000"
        ],
        "ContentTime": [
          "114755.687000",
          "114756.687000",
          "114756.687000",
          "114758.687000",
          "114801.187000",
          "114803.687000",
          "114806.687000",
          "114809.187000",
          "114811.687000",
          "114814.187000",
          "114816.687000",
          "114819.687000",
          "114822.187000",
          "114824.687000",
          "114827.187000",
          "114829.687000",
          "114832.687000",
          "114835.187000",
          "114837.687000",
          "114840.187000",
          "114842.687000",
          "114845.687000",
          "114848.187000",
          "114850.687000",
          "114853.187000",
          "114855.687000",
          "114858.687000",
          "114901.187000",
          "114903.687000",
          "114906.187000",
          "114908.687000",
          "114911.687000",
          "114914.187000",
          "114916.687000",
          "114919.187000",
          "114921.687000",
          "114924.687000",
          "114927.187000",
          "114929.687000",
          "114932.187000",
          "114934.687000",
          "114937.687000",
          "114940.187000",
          "114942.687000",
          "114945.187000",
          "114947.687000",
          "114950.687000",
          "114953.187000",
          "114955.687000",
          "114958.187000",
          "115000.687000",
          "115003.687000",
          "115006.187000",
          "115008.687000",
          "115011.187000",
          "115013.687000",
          "115016.687000",
          "115019.187000",
          "115021.687000",
          "115024.187000",
          "115026.687000",
          "115029.687000",
          "115032.187000",
          "115034.687000",
          "115037.187000",
          "115039.687000",
          "115042.687000",
          "115045.187000",
          "115047.687000",
          "115050.187000",
          "115052.687000",
          "115055.687000",
          "115058.187000",
          "115100.687000",
          "115103.187000",
          "115105.687000",
          "115108.687000",
          "115111.187000",
          "115113.687000",
          "115116.187000",
          "115118.687000",
          "115121.687000",
          "115124.187000",
          "115126.687000",
          "115129.187000",
          "115131.687000",
          "115134.687000",
          "115137.187000",
          "115139.687000",
          "115142.187000",
          "115144.687000",
          "115147.687000",
          "115150.187000",
          "115152.687000",
          "115155.187000",
          "115157.687000",
          "115200.687000",
          "115203.187000",
          "115205.687000",
          "115208.187000",
          "115210.687000",
          "115213.687000",
          "115216.187000",
          "115218.687000",
          "115221.187000",
          "115223.687000",
          "115226.687000",
          "115229.187000",
          "115231.687000",
          "115234.187000",
          "115236.687000",
          "115239.687000",
          "115242.187000",
          "115244.687000",
          "115247.187000",
          "115249.687000",
          "115252.687000",
          "115255.187000",
          "115257.687000",
          "115300.187000",
          "115302.687000",
          "115305.687000",
          "115308.187000",
          "115310.687000",
          "115313.187000",
          "115315.687000",
          "115318.687000",
          "115321.187000",
          "115323.687000",
          "115326.187000",
          "115328.687000",
          "115331.687000",
          "115334.187000",
          "115336.687000",
          "115339.187000",
          "115341.687000",
          "115344.687000",
          "115347.187000",
          "115349.687000",
          "115352.187000",
          "115354.687000",
          "115357.687000",
          "115400.187000",
          "115402.687000",
          "115405.187000",
          "115407.687000",
          "115410.687000",
          "115413.187000",
          "115415.687000",
          "115423.062000"
        ],
        "InstanceCreationTime": [
          "114755.687000",
          "114756.687000",
          "114756.687000",
          "114758.687000",
          "114801.187000",
          "114803.687000",
          "114806.687000",
          "114809.187000",
          "114811.687000",
          "114814.187000",
          "114816.687000",
          "114819.687000",
          "114822.187000",
          "114824.687000",
          "114827.187000",
          "114829.687000",
          "114832.687000",
          "114835.187000",
          "114837.687000",
          "114840.187000",
          "114842.687000",
          "114845.687000",
          "114848.187000",
          "114850.687000",
          "114853.187000",
          "114855.687000",
          "114858.687000",
          "114901.187000",
          "114903.687000",
          "114906.187000",
          "114908.687000",
          "114911.687000",
          "114914.187000",
          "114916.687000",
          "114919.187000",
          "114921.687000",
          "114924.687000",
          "114927.187000",
          "114929.687000",
          "114932.187000",
          "114934.687000",
          "114937.687000",
          "114940.187000",
          "114942.687000",
          "114945.187000",
          "114947.687000",
          "114950.687000",
          "114953.187000",
          "114955.687000",
          "114958.187000",
          "115000.687000",
          "115003.687000",
          "115006.187000",
          "115008.687000",
          "115011.187000",
          "115013.687000",
          "115016.687000",
          "115019.187000",
          "115021.687000",
          "115024.187000",
          "115026.687000",
          "115029.687000",
          "115032.187000",
          "115034.687000",
          "115037.187000",
          "115039.687000",
          "115042.687000",
          "115045.187000",
          "115047.687000",
          "115050.187000",
          "115052.687000",
          "115055.687000",
          "115058.187000",
          "115100.687000",
          "115103.187000",
          "115105.687000",
          "115108.687000",
          "115111.187000",
          "115113.687000",
          "115116.187000",
          "115118.687000",
          "115121.687000",
          "115124.187000",
          "115126.687000",
          "115129.187000",
          "115131.687000",
          "115134.687000",
          "115137.187000",
          "115139.687000",
          "115142.187000",
          "115144.687000",
          "115147.687000",
          "115150.187000",
          "115152.687000",
          "115155.187000",
          "115157.687000",
          "115200.687000",
          "115203.187000",
          "115205.687000",
          "115208.187000",
          "115210.687000",
          "115213.687000",
          "115216.187000",
          "115218.687000",
          "115221.187000",
          "115223.687000",
          "115226.687000",
          "115229.187000",
          "115231.687000",
          "115234.187000",
          "115236.687000",
          "115239.687000",
          "115242.187000",
          "115244.687000",
          "115247.187000",
          "115249.687000",
          "115252.687000",
          "115255.187000",
          "115257.687000",
          "115300.187000",
          "115302.687000",
          "115305.687000",
          "115308.187000",
          "115310.687000",
          "115313.187000",
          "115315.687000",
          "115318.687000",
          "115321.187000",
          "115323.687000",
          "115326.187000",
          "115328.687000",
          "115331.687000",
          "115334.187000",
          "115336.687000",
          "115339.187000",
          "115341.687000",
          "115344.687000",
          "115347.187000",
          "115349.687000",
          "115352.187000",
          "115354.687000",
          "115357.687000",
          "115400.187000",
          "115402.687000",
          "115405.187000",
          "115407.687000",
          "115410.687000",
          "115413.187000",
          "115415.687000",
          "115423.062000"
        ],
        "InstanceNumber": [
          1,
          2,
          3,
          4,
          5,
          6,
          7,
          8,
          9,
          10,
          11,
          12,
          13,
          14,
          15,
          16,
          17,
          18,
          19,
          20,
          21,
          22,
          23,
          24,
          25,
          26,
          27,
          28,
          29,
          30,
          31,
          32,
          33,
          34,
          35,
          36,
          37,
          38,
          39,
          40,
          41,
          42,
          43,
          44,
          45,
          46,
          47,
          48,
          49,
          50,
          51,
          52,
          53,
          54,
          55,
          56,
          57,
          58,
          59,
          60,
          61,
          62,
          63,
          64,
          65,
          66,
          67,
          68,
          69,
          70,
          71,
          72,
          73,
          74,
          75,
          76,
          77,
          78,
          79,
          80,
          81,
          82,
          83,
          84,
          85,
          86,
          87,
          88,
          89,
          90,
          91,
          92,
          93,
          94,
          95,
          96,
          97,
          98,
          99,
          100,
          101,
          102,
          103,
          104,
          105,
          106,
          107,
          108,
          109,
          110,
          111,
          112,
          113,
          114,
          115,
          116,
          117,
          118,
          119,
          120,
          121,
          122,
          123,
          124,
          125,
          126,
          127,
          128,
          129,
          130,
          131,
          132,
          133,
          134,
          135,
          136,
          137,
          138,
          139,
          140,
          141,
          142,
          143,
          144,
          145,
          146,
          147,
          148,
          149,
          150
        ],
        "LargestImagePixelValue": [
          4095,
          4057,
          4000,
          3994,
          4095,
          4039,
          4095,
          4086,
          4064,
          3980,
          4074,
          4095,
          4066,
          4060,
          4033,
          4090,
          3963,
          4071,
          3965,
          4005,
          4004,
          3936,
          4084,
          3983,
          4049,
          4031,
          3939,
          4005,
          4095,
          4083,
          4029,
          3978,
          4034,
          3999,
          3985,
          4055,
          3969,
          3946,
          3943,
          3973,
          4039,
          4001,
          4000,
          4095,
          4038,
          4033,
          3957,
          3929,
          4024,
          3974,
          4008,
          4012,
          3958,
          3971,
          4068,
          4061,
          4084,
          3959,
          4041,
          4095,
          4004,
          4095,
          4095,
          4095,
          4029,
          4029,
          4077,
          4035,
          3963,
          4085,
          3942,
          3952,
          4000,
          4095,
          4008,
          4063,
          4013,
          3880,
          3902,
          3974,
          3983,
          4000,
          3988,
          3872,
          3878,
          4023,
          3942,
          3932,
          3960,
          3931,
          4037,
          4095,
          4011,
          3945,
          4073,
          3968,
          4037,
          4068,
          3980,
          3941,
          3991,
          4043,
          4024,
          3936,
          3959,
          4054,
          4003,
          3955,
          3911,
          3969,
          3979,
          4007,
          4014,
          3904,
          4012,
          3961,
          3934,
          4030,
          4019,
          4025,
          4064,
          4051,
          3988,
          3986,
          4008,
          4020,
          4052,
          4028,
          3996,
          3897,
          3972,
          3976,
          4012,
          3956,
          3980,
          4007,
          4013,
          4041,
          3927,
          3939,
          4032,
          4042,
          4037,
          4079,
          3988,
          3979,
          3965,
          4004,
          4014,
          4035
        ],
        "WindowCenter": [
          794.0,
          795.0,
          794.0,
          793.0,
          793.0,
          794.0,
          793.0,
          794.0,
          796.0,
          795.0,
          793.0,
          793.0,
          794.0,
          794.0,
          794.0,
          793.0,
          792.0,
          795.0,
          795.0,
          794.0,
          795.0,
          794.0,
          795.0,
          794.0,
          794.0,
          794.0,
          795.0,
          793.0,
          793.0,
          795.0,
          794.0,
          793.0,
          793.0,
          793.0,
          793.0,
          794.0,
          794.0,
          795.0,
          794.0,
          796.0,
          794.0,
          794.0,
          795.0,
          795.0,
          794.0,
          795.0,
          794.0,
          794.0,
          796.0,
          794.0,
          793.0,
          793.0,
          796.0,
          794.0,
          793.0,
          795.0,
          795.0,
          793.0,
          794.0,
          794.0,
          795.0,
          795.0,
          793.0,
          794.0,
          795.0,
          794.0,
          793.0,
          795.0,
          795.0,
          793.0,
          792.0,
          795.0,
          794.0,
          794.0,
          795.0,
          795.0,
          795.0,
          794.0,
          795.0,
          795.0,
          794.0,
          795.0,
          796.0,
          794.0,
          794.0,
          794.0,
          795.0,
          794.0,
          794.0,
          794.0,
          794.0,
          796.0,
          797.0,
          794.0,
          794.0,
          797.0,
          794.0,
          794.0,
          795.0,
          795.0,
          795.0,
          793.0,
          794.0,
          793.0,
          793.0,
          794.0,
          795.0,
          795.0,
          794.0,
          794.0,
          794.0,
          795.0,
          795.0,
          793.0,
          793.0,
          795.0,
          794.0,
          793.0,
          792.0,
          794.0,
          795.0,
          793.0,
          792.0,
          794.0,
          794.0,
          792.0,
          792.0,
          794.0,
          794.0,
          793.0,
          793.0,
          794.0,
          796.0,
          795.0,
          792.0,
          793.0,
          794.0,
          794.0,
          795.0,
          794.0,
          794.0,
          793.0,
          793.0,
          794.0,
          793.0,
          793.0,
          794.0,
          793.0,
          794.0,
          794.0
        ],
        "WindowWidth": [
          1750.0,
          1751.0,
          1749.0,
          1745.0,
          1746.0,
          1748.0,
          1744.0,
          1749.0,
          1755.0,
          1750.0,
          1745.0,
          1744.0,
          1747.0,
          1749.0,
          1748.0,
          1746.0,
          1742.0,
          1751.0,
          1752.0,
          1749.0,
          1750.0,
          1748.0,
          1750.0,
          1748.0,
          1749.0,
          1747.0,
          1749.0,
          1746.0,
          1745.0,
          1752.0,
          1749.0,
          1746.0,
          1745.0,
          1744.0,
          1746.0,
          1749.0,
          1749.0,
          1751.0,
          1748.0,
          1753.0,
          1749.0,
          1746.0,
          1751.0,
          1751.0,
          1747.0,
          1750.0,
          1749.0,
          1749.0,
          1753.0,
          1749.0,
          1743.0,
          1746.0,
          1753.0,
          1748.0,
          1746.0,
          1750.0,
          1750.0,
          1745.0,
          1749.0,
          1749.0,
          1752.0,
          1751.0,
          1746.0,
          1748.0,
          1751.0,
          1747.0,
          1744.0,
          1752.0,
          1750.0,
          1745.0,
          1743.0,
          1750.0,
          1749.0,
          1750.0,
          1752.0,
          1753.0,
          1753.0,
          1748.0,
          1751.0,
          1750.0,
          1749.0,
          1752.0,
          1753.0,
          1747.0,
          1747.0,
          1750.0,
          1752.0,
          1747.0,
          1749.0,
