{
  "aor": 0.0005146666666666667,
  "aqi": 0.014462064666666663,
  "bids_meta": {
    "AcquisitionMatrixPE": 188,
    "AcquisitionNumber": 1,
    "AcquisitionTime": "15:38:25.170000",
    "BandwidthPerPixelPhaseEncode": 19.46,
    "BaseResolution": 188,
    "ConversionSoftware": "dcm2niix",
    "ConversionSoftwareVersion": "v1.0.20180606 GCC4.8.5",
    "DelayTime": 1.2,
    "DerivedVendorReportedEchoSpacing": 0.000820013,
    "DeviceSerialNumber": "18930",
    "DwellTime": 1.9e-06,
    "EchoTime": 0.02,
    "EffectiveEchoSpacing": 0.000273338,
    "FlipAngle": 80,
    "ImageComments": "Unaliased_MB2_PE2",
    "ImageOrientationPatientDICOM": [
      0.998559,
      0.0512351,
      0.0159773,
      0.00912013,
      0.131378,
      -0.99129
    ],
    "ImageType": [
      "ORIGINAL",
      "PRIMARY",
      "M",
      "MB",
      "ND",
      "MOSAIC"
    ],
    "InPlanePhaseEncodingDirectionDICOM": "COL",
    "InstitutionAddress": "Oxfordlaan_55_Maastricht_753AAF_Limburg_NL_6229_EV",
    "InstitutionName": "Scannexus",
    "InstitutionalDepartmentName": "MRI_7T",
    "MRAcquisitionType": "2D",
    "MagneticFieldStrength": 6.98,
    "Manufacturer": "Siemens",
    "ManufacturersModelName": "Investigational_Device_7T",
    "Modality": "MR",
    "MultibandAccelerationFactor": 2,
    "ParallelReductionFactorInPlane": 3,
    "PartialFourier": 0.75,
    "PatientPosition": "HFS",
    "PercentPhaseFOV": 100,
    "PhaseEncodingDirection": "j",
    "PhaseEncodingSteps": 141,
    "PhaseResolution": 1,
    "PixelBandwidth": 1400,
    "ProcedureStepDescription": "FeDem_Faruk",
    "ProtocolName": "cmrr_mbep2d_bold_AP_run4",
    "PulseSequenceDetails": "%CustomerSeq%_cmrr_mbep2d_bold",
    "ReceiveCoilName": "32Ch_Head_7T",
    "ReconMatrixPE": 188,
    "RepetitionTime": 2.6,
    "SAR": 0.0581201,
    "ScanOptions": "PFP_FS",
    "ScanningSequence": "EP",
    "SequenceName": "epfid2d1_188",
    "SequenceVariant": "SK_SS",
    "SeriesDescription": "cmrr_mbep2d_bold_AP_run4",
    "SeriesNumber": 15,
    "ShimSetting": [
      100,
      -69,
      465,
      394,
      -246,
      272,
      386,
      86
    ],
    "SliceThickness": 1.1,
    "SliceTiming": [
      0,
      0.735,
      0.0625,
      0.795,
      0.1225,
      0.8575,
      0.185,
      0.9175,
      0.245,
      0.98,
      0.3075,
      1.04,
      0.3675,
      1.1,
      0.43,
      1.1625,
      0.49,
      1.2225,
      0.55,
      1.285,
      0.6125,
      1.345,
      0.6725,
      0,
      0.735,
      0.0625,
      0.795,
      0.1225,
      0.8575,
      0.185,
      0.9175,
      0.245,
      0.98,
      0.3075,
      1.04,
      0.3675,
      1.1,
      0.43,
      1.1625,
      0.49,
      1.2225,
      0.55,
      1.285,
      0.6125,
      1.345,
      0.6725
    ],
    "SoftwareVersions": "syngo_MR_B17",
    "SpacingBetweenSlices": 1.1,
    "StationName": "MRC18930",
    "TaskName": "auditory",
    "TotalReadoutTime": 0.0511141,
    "TxRefAmp": 195,
    "dataset": "ds001942",
    "dcmmeta_affine": [
      [
        -1.094165563583374,
        0.009993336163461208,
        0.05817669257521629,
        101.1329345703125
      ],
      [
        -0.05614057183265686,
        0.14395633339881897,
        -1.0890082120895386,
        32.92335510253906
      ],
      [
        0.017507025972008705,
        1.0862013101577759,
        0.14379310607910156,
        -111.92818450927734
      ],
      [
        0.0,
        0.0,
        0.0,
        1.0
      ]
    ],
    "dcmmeta_reorient_transform": [
      [
        0.0,
        -1.0,
        0.0,
        187.0
      ],
      [
        1.0,
        0.0,
        0.0,
        0.0
      ],
      [
        0.0,
        0.0,
        1.0,
        0.0
      ],
      [
        0.0,
        0.0,
        0.0,
        1.0
      ]
    ],
    "dcmmeta_shape": [
      188,
      188,
      46,
      150
    ],
    "dcmmeta_slice_dim": 2,
    "dcmmeta_version": 0.6,
    "global": {
      "const": {
        "AcquisitionMatrix": [
          188,
          0,
          0,
          188
        ],
        "AngioFlag": "N",
        "BitsAllocated": 16,
        "BitsStored": 12,
        "Columns": 1316,
        "EchoNumbers": 1,
        "EchoTime": 20.0,
        "EchoTrainLength": 1,
        "FlipAngle": 80.0,
        "HighBit": 11,
        "ImageOrientationPatient": [
          0.99855880789424,
          0.05123508108882,
          0.01597728520941,
          0.00912013137267,
          0.13137761291988,
          -0.991290444838
        ],
        "ImagePositionPatient": [
          -725.74730394333,
          -172.69783867623,
          693.93501472834
        ],
        "ImageType": [
          "ORIGINAL",
          "PRIMARY",
          "M",
          "MB",
          "ND",
          "MOSAIC"
        ],
        "ImagedNucleus": "1H",
        "ImagingFrequency": 297.205544,
        "InPlanePhaseEncodingDirection": "COL",
        "LargestImagePixelValue": 4095,
        "MRAcquisitionType": "2D",
        "MagneticFieldStrength": 6.98,
        "Manufacturer": "SIEMENS",
        "ManufacturerModelName": "Investigational_Device_7T",
        "Modality": "MR",
        "NumberOfAverages": 1.0,
        "NumberOfPhaseEncodingSteps": 141,
        "PercentPhaseFieldOfView": 100.0,
        "PercentSampling": 100.0,
        "PerformedProcedureStepStartTime": "145017.984000",
        "PhotometricInterpretation": "MONOCHROME2",
        "PixelBandwidth": 1400.0,
        "PixelRepresentation": 0,
        "PixelSpacing": [
          1.0957447290421,
          1.0957447290421
        ],
        "ProtocolName": "cmrr_mbep2d_bold_AP_run4",
        "RepetitionTime": 2600.0,
        "Rows": 1316,
        "SAR": 0.05812011650905,
        "SamplesPerPixel": 1,
        "ScanOptions": [
          "PFP",
          "FS"
        ],
        "ScanningSequence": "EP",
        "SequenceName": "epfid2d1_188",
        "SequenceVariant": [
          "SK",
          "SS"
        ],
        "SeriesDescription": "cmrr_mbep2d_bold_AP_run4",
        "SeriesNumber": 15,
        "SeriesTime": "153833.406000",
        "SliceLocation": -41.877024908674,
        "SliceThickness": 1.1000000238419,
        "SmallestImagePixelValue": 0,
        "SoftwareVersions": "syngo MR B17",
        "SpacingBetweenSlices": 1.0999999933357,
        "SpecificCharacterSet": "ISO_IR 100",
        "StudyID": "1",
        "StudyTime": "145017.921000",
        "TransmitCoilName": "32Ch_Head_7T",
        "VariableFlipAngleFlag": "N",
        "WindowCenterWidthExplanation": "Algo1",
        "dBdt": 0.0
      },
      "slices": {}
    },
    "modality": "bold",
    "run_id": 4,
    "session_id": "SES03",
    "subject_id": "S03",
    "task_id": "auditory",
    "time": {
      "samples": {
        "AcquisitionNumber": [
          1,
          2,
          3,
          4,
          5,
          6,
          7,
          8,
          9,
          10,
          11,
          12,
          13,
          14,
          15,
          16,
          17,
          18,
          19,
          20,
          21,
          22,
          23,
          24,
          25,
          26,
          27,
          28,
          29,
          30,
          31,
          32,
          33,
          34,
          35,
          36,
          37,
          38,
          39,
          40,
          41,
          42,
          43,
          44,
          45,
          46,
          47,
          48,
          49,
          50,
          51,
          52,
          53,
          54,
          55,
          56,
          57,
          58,
          59,
          60,
          61,
          62,
          63,
          64,
          65,
          66,
          67,
          68,
          69,
          70,
          71,
          72,
          73,
          74,
          75,
          76,
          77,
          78,
          79,
          80,
          81,
          82,
          83,
          84,
          85,
          86,
          87,
          88,
          89,
          90,
          91,
          92,
          93,
          94,
          95,
          96,
          97,
          98,
          99,
          100,
          101,
          102,
          103,
          104,
          105,
          106,
          107,
          108,
          109,
          110,
          111,
          112,
          113,
          114,
          115,
          116,
          117,
          118,
          119,
          120,
          121,
          122,
          123,
          124,
          125,
          126,
          127,
          128,
          129,
          130,
          131,
          132,
          133,
          134,
          135,
          136,
          137,
          138,
          139,
          140,
          141,
          142,
          143,
          144,
          145,
          146,
          147,
          148,
          149,
          150
        ],
        "AcquisitionTime": [
          "153825.170000",
          "153827.782500",
          "153830.392500",
          "153833.002500",
          "153835.612500",
          "153838.222500",
          "153840.835000",
          "153843.445000",
          "153846.055000",
          "153848.665000",
          "153851.275000",
          "153853.885000",
          "153856.497500",
          "153859.107500",
          "153901.717500",
          "153904.327500",
          "153906.937500",
          "153909.547500",
          "153912.160000",
          "153914.770000",
          "153917.380000",
          "153919.990000",
          "153922.600000",
          "153925.212500",
          "153927.822500",
          "153930.432500",
          "153933.042500",
          "153935.652500",
          "153938.262500",
          "153940.875000",
          "153943.485000",
          "153946.095000",
          "153948.705000",
          "153951.315000",
          "153953.925000",
          "153956.537500",
          "153959.147500",
          "154001.757500",
          "154004.367500",
          "154006.977500",
          "154009.590000",
          "154012.200000",
          "154014.810000",
          "154017.420000",
          "154020.030000",
          "154022.640000",
          "154025.252500",
          "154027.862500",
          "154030.472500",
          "154033.082500",
          "154035.692500",
          "154038.302500",
          "154040.915000",
          "154043.525000",
          "154046.135000",
          "154048.745000",
          "154051.355000",
          "154053.967500",
          "154056.577500",
          "154059.187500",
          "154101.797500",
          "154104.407500",
          "154107.017500",
          "154109.630000",
          "154112.240000",
          "154114.850000",
          "154117.460000",
          "154120.070000",
          "154122.680000",
          "154125.292500",
          "154127.902500",
          "154130.512500",
          "154133.122500",
          "154135.732500",
          "154138.345000",
          "154140.955000",
          "154143.565000",
          "154146.175000",
          "154148.785000",
          "154151.395000",
          "154154.007500",
          "154156.617500",
          "154159.227500",
          "154201.837500",
          "154204.447500",
          "154207.057500",
          "154209.670000",
          "154212.280000",
          "154214.890000",
          "154217.500000",
          "154220.110000",
          "154222.722500",
          "154225.332500",
          "154227.942500",
          "154230.552500",
          "154233.162500",
          "154235.772500",
          "154238.385000",
          "154240.995000",
          "154243.605000",
          "154246.215000",
          "154248.825000",
          "154251.435000",
          "154254.047500",
          "154256.657500",
          "154259.267500",
          "154301.877500",
          "154304.487500",
          "154307.100000",
          "154309.710000",
          "154312.320000",
          "154314.930000",
          "154317.540000",
          "154320.150000",
          "154322.762500",
          "154325.372500",
          "154327.982500",
          "154330.592500",
          "154333.202500",
          "154335.812500",
          "154338.425000",
          "154341.035000",
          "154343.645000",
          "154346.255000",
          "154348.865000",
          "154351.477500",
          "154354.087500",
          "154356.697500",
          "154359.307500",
          "154401.917500",
          "154404.527500",
          "154407.140000",
          "154409.750000",
          "154412.360000",
          "154414.970000",
          "154417.580000",
          "154420.190000",
          "154422.802500",
          "154425.412500",
          "154428.022500",
          "154430.632500",
          "154433.242500",
          "154435.855000",
          "154438.465000",
          "154441.075000",
          "154443.685000",
          "154446.295000",
          "154448.905000",
          "154451.517500",
          "154454.127500"
        ],
        "ContentTime": [
          "153833.406000",
          "153833.890000",
          "153834.390000",
          "153836.890000",
          "153839.390000",
          "153841.890000",
          "153844.890000",
          "153847.390000",
          "153849.890000",
          "153852.390000",
          "153854.890000",
          "153857.890000",
          "153900.390000",
          "153902.890000",
          "153905.390000",
          "153907.890000",
          "153910.890000",
          "153913.390000",
          "153915.890000",
          "153918.390000",
          "153920.890000",
          "153923.890000",
          "153926.390000",
          "153928.890000",
          "153931.390000",
          "153933.890000",
          "153936.890000",
          "153939.390000",
          "153941.890000",
          "153944.390000",
          "153946.890000",
          "153949.890000",
          "153952.390000",
          "153954.890000",
          "153957.390000",
          "153959.890000",
          "154002.890000",
          "154005.390000",
          "154007.890000",
          "154010.390000",
          "154012.890000",
          "154015.890000",
          "154018.390000",
          "154020.890000",
          "154023.390000",
          "154025.890000",
          "154028.890000",
          "154031.390000",
          "154033.890000",
          "154036.390000",
          "154038.890000",
          "154041.906000",
          "154044.390000",
          "154046.890000",
          "154049.390000",
          "154051.890000",
          "154054.890000",
          "154057.390000",
          "154059.890000",
          "154102.390000",
          "154104.890000",
          "154107.890000",
          "154110.390000",
          "154112.890000",
          "154115.390000",
          "154117.890000",
          "154120.890000",
          "154123.390000",
          "154125.890000",
          "154128.390000",
          "154130.890000",
          "154133.890000",
          "154136.390000",
          "154138.890000",
          "154141.390000",
          "154144.390000",
          "154146.890000",
          "154149.390000",
          "154151.890000",
          "154154.390000",
          "154156.890000",
          "154159.890000",
          "154202.390000",
          "154204.890000",
          "154207.390000",
          "154209.890000",
          "154212.890000",
          "154215.390000",
          "154217.890000",
          "154220.390000",
          "154222.890000",
          "154225.890000",
          "154228.390000",
          "154230.890000",
          "154233.390000",
          "154235.890000",
          "154238.890000",
          "154241.390000",
          "154243.890000",
          "154246.390000",
          "154248.890000",
          "154251.890000",
          "154254.390000",
          "154256.890000",
          "154259.390000",
          "154301.890000",
          "154304.890000",
          "154307.390000",
          "154309.890000",
          "154312.390000",
          "154314.890000",
          "154317.890000",
          "154320.390000",
          "154322.890000",
          "154325.390000",
          "154327.890000",
          "154330.890000",
          "154333.390000",
          "154335.890000",
          "154338.390000",
          "154340.890000",
          "154343.890000",
          "154346.390000",
          "154348.890000",
          "154351.390000",
          "154353.890000",
          "154356.890000",
          "154359.390000",
          "154401.890000",
          "154404.390000",
          "154406.890000",
          "154409.890000",
          "154412.390000",
          "154414.890000",
          "154417.390000",
          "154419.890000",
          "154422.890000",
          "154425.390000",
          "154427.890000",
          "154430.390000",
          "154432.890000",
          "154435.890000",
          "154438.390000",
          "154440.890000",
          "154443.390000",
          "154445.890000",
          "154448.890000",
          "154451.390000",
          "154453.890000",
          "154501.265000"
        ],
        "InstanceCreationTime": [
          "153833.406000",
          "153833.890000",
          "153834.390000",
          "153836.890000",
          "153839.390000",
          "153841.890000",
          "153844.890000",
          "153847.390000",
          "153849.890000",
          "153852.390000",
          "153854.890000",
          "153857.890000",
          "153900.390000",
          "153902.890000",
          "153905.390000",
          "153907.890000",
          "153910.890000",
          "153913.390000",
          "153915.890000",
          "153918.390000",
          "153920.890000",
          "153923.890000",
          "153926.390000",
          "153928.890000",
          "153931.390000",
          "153933.890000",
          "153936.890000",
          "153939.390000",
          "153941.890000",
          "153944.390000",
          "153946.890000",
          "153949.890000",
          "153952.390000",
          "153954.890000",
          "153957.390000",
          "153959.890000",
          "154002.890000",
          "154005.390000",
          "154007.890000",
          "154010.390000",
          "154012.890000",
          "154015.890000",
          "154018.390000",
          "154020.890000",
          "154023.390000",
          "154025.890000",
          "154028.890000",
          "154031.390000",
          "154033.890000",
          "154036.390000",
          "154038.890000",
          "154041.906000",
          "154044.390000",
          "154046.890000",
          "154049.390000",
          "154051.890000",
          "154054.890000",
          "154057.390000",
          "154059.890000",
          "154102.390000",
          "154104.890000",
          "154107.890000",
          "154110.390000",
          "154112.890000",
          "154115.390000",
          "154117.890000",
          "154120.890000",
          "154123.390000",
          "154125.890000",
          "154128.390000",
          "154130.890000",
          "154133.890000",
          "154136.390000",
          "154138.890000",
          "154141.390000",
          "154144.390000",
          "154146.890000",
          "154149.390000",
          "154151.890000",
          "154154.390000",
          "154156.890000",
          "154159.890000",
          "154202.390000",
          "154204.890000",
          "154207.390000",
          "154209.890000",
          "154212.890000",
          "154215.390000",
          "154217.890000",
          "154220.390000",
          "154222.890000",
          "154225.890000",
          "154228.390000",
          "154230.890000",
          "154233.390000",
          "154235.890000",
          "154238.890000",
          "154241.390000",
          "154243.890000",
          "154246.390000",
          "154248.890000",
          "154251.890000",
          "154254.390000",
          "154256.890000",
          "154259.390000",
          "154301.890000",
          "154304.890000",
          "154307.390000",
          "154309.890000",
          "154312.390000",
          "154314.890000",
          "154317.890000",
          "154320.390000",
          "154322.890000",
          "154325.390000",
          "154327.890000",
          "154330.890000",
          "154333.390000",
          "154335.890000",
          "154338.390000",
          "154340.890000",
          "154343.890000",
          "154346.390000",
          "154348.890000",
          "154351.390000",
          "154353.890000",
          "154356.890000",
          "154359.390000",
          "154401.890000",
          "154404.390000",
          "154406.890000",
          "154409.890000",
          "154412.390000",
          "154414.890000",
          "154417.390000",
          "154419.890000",
          "154422.890000",
          "154425.390000",
          "154427.890000",
          "154430.390000",
          "154432.890000",
          "154435.890000",
          "154438.390000",
          "154440.890000",
          "154443.390000",
          "154445.890000",
          "154448.890000",
          "154451.390000",
          "154453.890000",
          "154501.265000"
        ],
        "InstanceNumber": [
          1,
          2,
          3,
          4,
          5,
          6,
          7,
          8,
          9,
          10,
          11,
          12,
          13,
          14,
          15,
          16,
          17,
          18,
          19,
          20,
          21,
          22,
          23,
          24,
          25,
          26,
          27,
          28,
          29,
          30,
          31,
          32,
          33,
          34,
          35,
          36,
          37,
          38,
          39,
          40,
          41,
          42,
          43,
          44,
          45,
          46,
          47,
          48,
          49,
          50,
          51,
          52,
          53,
          54,
          55,
          56,
          57,
          58,
          59,
          60,
          61,
          62,
          63,
          64,
          65,
          66,
          67,
          68,
          69,
          70,
          71,
          72,
          73,
          74,
          75,
          76,
          77,
          78,
          79,
          80,
          81,
          82,
          83,
          84,
          85,
          86,
          87,
          88,
          89,
          90,
          91,
          92,
          93,
          94,
          95,
          96,
          97,
          98,
          99,
          100,
          101,
          102,
          103,
          104,
          105,
          106,
          107,
          108,
          109,
          110,
          111,
          112,
          113,
          114,
          115,
          116,
          117,
          118,
          119,
          120,
          121,
          122,
          123,
          124,
          125,
          126,
          127,
          128,
          129,
          130,
          131,
          132,
          133,
          134,
          135,
          136,
          137,
          138,
          139,
          140,
          141,
          142,
          143,
          144,
          145,
          146,
          147,
          148,
          149,
          150
        ],
        "WindowCenter": [
          868.0,
          867.0,
          868.0,
          869.0,
          867.0,
          865.0,
          866.0,
          868.0,
          866.0,
          866.0,
          867.0,
          868.0,
          868.0,
          867.0,
          866.0,
          867.0,
          868.0,
          867.0,
          867.0,
          867.0,
          867.0,
          866.0,
          866.0,
          866.0,
          866.0,
          867.0,
          867.0,
          867.0,
          866.0,
          867.0,
          867.0,
          866.0,
          865.0,
          865.0,
          867.0,
          867.0,
          866.0,
          867.0,
          867.0,
          867.0,
          866.0,
          867.0,
          868.0,
          867.0,
          866.0,
          866.0,
          867.0,
          867.0,
          867.0,
          867.0,
          867.0,
          868.0,
          867.0,
          867.0,
          867.0,
          868.0,
          868.0,
          867.0,
          866.0,
          866.0,
          867.0,
          867.0,
          867.0,
          867.0,
          867.0,
          867.0,
          867.0,
          867.0,
          865.0,
          865.0,
          866.0,
          866.0,
          866.0,
          866.0,
          867.0,
          867.0,
          867.0,
          866.0,
          866.0,
          867.0,
          868.0,
          866.0,
          867.0,
          868.0,
          866.0,
          866.0,
          867.0,
          867.0,
          865.0,
          866.0,
          867.0,
          867.0,
          867.0,
          867.0,
          866.0,
          866.0,
          866.0,
          865.0,
          865.0,
          866.0,
          867.0,
          867.0,
          866.0,
          867.0,
          867.0,
          867.0,
          866.0,
          866.0,
          867.0,
          867.0,
          867.0,
          867.0,
          866.0,
          866.0,
          866.0,
          867.0,
          867.0,
          866.0,
          866.0,
          866.0,
          866.0,
          867.0,
          867.0,
          866.0,
          866.0,
          867.0,
          868.0,
          867.0,
          865.0,
          866.0,
          867.0,
          868.0,
          866.0,
          866.0,
          867.0,
          869.0,
          867.0,
          867.0,
          868.0,
          868.0,
          867.0,
          867.0,
          866.0,
          866.0,
          867.0,
          867.0,
          868.0,
          868.0,
          868.0,
          868.0
        ],
        "WindowWidth": [
          2031.0,
          2026.0,
          2033.0,
          2035.0,
          2025.0,
          2021.0,
          2026.0,
          2030.0,
          2024.0,
          2024.0,
          2028.0,
          2032.0,
          2029.0,
          2026.0,
          2023.0,
          2029.0,
          2030.0,
          2029.0,
          2027.0,
          2026.0,
          2027.0,
          2025.0,
          2022.0,
          2022.0,
          2023.0,
          2030.0,
          2029.0,
          2027.0,
          2026.0,
          2028.0,
          2027.0,
          2025.0,
          2020.0,
          2021.0,
          2026.0,
          2028.0,
          2024.0,
          2028.0,
          2029.0,
          2029.0,
          2024.0,
          2028.0,
          2032.0,
          2026.0,
          2023.0,
          2023.0,
          2027.0,
          2028.0,
          2027.0,
          2026.0,
          2029.0,
          2030.0,
          2025.0,
          2028.0,
          2030.0,
          2030.0,
          2032.0,
          2030.0,
          2025.0,
          2024.0,
          2027.0,
          2030.0,
          2029.0,
          2028.0,
          2027.0,
          2028.0,
          2030.0,
          2028.0,
          2022.0,
          2022.0,
          2026.0,
          2025.0,
          2024.0,
          2024.0,
          2030.0,
          2029.0,
          2029.0,
          2025.0,
          2026.0,
          2032.0,
          2030.0,
          2024.0,
          2029.0,
          2030.0,
          2024.0,
          2024.0,
          2028.0,
          2030.0,
          2021.0,
          2024.0,
          2029.0,
          2030.0,
          2029.0,
          2029.0,
          2027.0,
          2025.0,
          2024.0,
          2022.0,
          2020.0,
          2023.0,
          2029.0,
          2027.0,
          2024.0,
          2028.0,
          2030.0,
          2028.0,
          2024.0,
          2024.0,
          2030.0,
          2030.0,
          2030.0,
          2029.0,
          2026.0,
          2025.0,
          2027.0,
          2030.0,
          2029.0,
          2026.0,
          2024.0,
          2026.0,
          2026.0,
          2030.0,
          2027.0,
          2025.0,
          2026.0,
          2028.0,
          2031.0,
          2027.0,
          2022.0,
          2024.0,
          2030.0,
          2030.0,
          2023.0,
          2023.0,
          2030.0,
          2034.0,
          2029.0,
          2028.0,
          2031.0,
          2033.0,
          2029.0,
          2026.0,
          2025.0,
          2025.0,
          2027.0,
          2030.0,
          2032.0,
          2030.0,
          2030.0,
          2030.0
        ]
      },
      "slices": {}
    }
  },
  "dummy_trs": 0,
  "dvars_nstd": 74.81180034899334,
  "dvars_std": 1.0884581531543627,
  "dvars_vstd": 1.0041501169798652,
  "efc": 0.5450440315843077,
  "fber": 454.73284912109375,
  "fd_mean": 0.09990618306549529,
  "fd_num": 1,
  "fd_perc": 0.6666666666666666,
  "fwhm_avg": 2.8944865565204414,
  "fwhm_x": 2.791024149095066,
  "fwhm_y": 2.793981042168905,
  "fwhm_z": 3.0984544782973535,
  "gcor": 0.0014619,
  "gsr_x": -0.013138639740645885,
  "gsr_y": 0.0553722158074379,
  "provenance": {
    "md5sum": "e20604c5c259e142aef4d58a6e266012",
    "settings": {
      "fd_thres": 0.2,
      "testing": false
    },
    "software": "mriqc",
    "version": "23.0.1",
    "webapi_port": null,
    "webapi_url": "https://mriqc.nimh.nih.gov/api/v1"
  },
  "size_t": 150,
  "size_x": 188,
  "size_y": 188,
  "size_z": 46,
  "snr": 2.3555601705203846,
  "spacing_tr": 2.5999999046325684,
  "spacing_x": 1.0957447290420532,
  "spacing_y": 1.0957447290420532,
  "spacing_z": 1.100000023841858,
  "summary_bg_k": 56.20636903626677,
  "summary_bg_mad": 22.3082220220912,
  "summary_bg_mean": 77.57288360595703,
  "summary_bg_median": 46.77333450317383,
  "summary_bg_n": 1085749.0,
  "summary_bg_p05": 30.226667404174805,
  "summary_bg_p95": 217.8000030517578,
