{
  "aor": 0.0005737962962962963,
  "aqi": 0.015648539814814816,
  "bids_meta": {
    "AcquisitionMatrixPE": 188,
    "AcquisitionNumber": 1,
    "AcquisitionTime": "10:23:10.135000",
    "BandwidthPerPixelPhaseEncode": 19.46,
    "BaseResolution": 188,
    "ConversionSoftware": "dcm2niix",
    "ConversionSoftwareVersion": "v1.0.20180606 GCC4.8.5",
    "DelayTime": 1.2,
    "DerivedVendorReportedEchoSpacing": 0.000820013,
    "DeviceSerialNumber": "18930",
    "DwellTime": 1.9e-06,
    "EchoTime": 0.02,
    "EffectiveEchoSpacing": 0.000273338,
    "FlipAngle": 80,
    "ImageComments": "Unaliased_MB2_PE2",
    "ImageOrientationPatientDICOM": [
      0.999656,
      0.00483966,
      0.0257742,
      0.0252347,
      0.0899754,
      -0.995624
    ],
    "ImageType": [
      "ORIGINAL",
      "PRIMARY",
      "M",
      "MB",
      "ND",
      "MOSAIC"
    ],
    "InPlanePhaseEncodingDirectionDICOM": "COL",
    "InstitutionAddress": "Oxfordlaan_55_Maastricht_Limburg_NL_6229_EV",
    "InstitutionName": "Scannexus",
    "InstitutionalDepartmentName": "MRI_7T",
    "MRAcquisitionType": "2D",
    "MagneticFieldStrength": 6.98,
    "Manufacturer": "Siemens",
    "ManufacturersModelName": "Investigational_Device_7T",
    "Modality": "MR",
    "MultibandAccelerationFactor": 2,
    "ParallelReductionFactorInPlane": 3,
    "PartialFourier": 0.75,
    "PatientPosition": "HFS",
    "PercentPhaseFOV": 100,
    "PhaseEncodingDirection": "j",
    "PhaseEncodingSteps": 141,
    "PhaseResolution": 1,
    "PixelBandwidth": 1400,
    "ProcedureStepDescription": "FeDem_Faruk",
    "ProtocolName": "cmrr_mbep2d_bold_AP_run3",
    "PulseSequenceDetails": "%CustomerSeq%_cmrr_mbep2d_bold",
    "ReceiveCoilName": "32Ch_Head_7T",
    "ReconMatrixPE": 188,
    "RepetitionTime": 2.6,
    "SAR": 0.0937005,
    "ScanOptions": "PFP_FS",
    "ScanningSequence": "EP",
    "SequenceName": "epfid2d1_188",
    "SequenceVariant": "SK_SS",
    "SeriesDescription": "cmrr_mbep2d_bold_AP_run3",
    "SeriesNumber": 13,
    "ShimSetting": [
      170,
      -73,
      506,
      467,
      132,
      126,
      -201,
      91
    ],
    "SliceThickness": 1.1,
    "SliceTiming": [
      0,
      0.7325,
      0.0625,
      0.795,
      0.1225,
      0.855,
      0.1825,
      0.9175,
      0.245,
      0.9775,
      0.305,
      1.04,
      0.3675,
      1.1,
      0.4275,
      1.16,
      0.49,
      1.2225,
      0.55,
      1.2825,
      0.61,
      1.345,
      0.6725,
      0,
      0.7325,
      0.0625,
      0.795,
      0.1225,
      0.855,
      0.1825,
      0.9175,
      0.245,
      0.9775,
      0.305,
      1.04,
      0.3675,
      1.1,
      0.4275,
      1.16,
      0.49,
      1.2225,
      0.55,
      1.2825,
      0.61,
      1.345,
      0.6725
    ],
    "SoftwareVersions": "syngo_MR_B17",
    "SpacingBetweenSlices": 1.1,
    "StationName": "MRC18930",
    "TaskName": "auditory",
    "TotalReadoutTime": 0.0511141,
    "TxRefAmp": 255,
    "dataset": "ds001942",
    "dcmmeta_affine": [
      [
        -1.0953679084777832,
        0.027650779113173485,
        0.007851283065974712,
        99.74903106689453
      ],
      [
        -0.005303035490214825,
        0.09859009087085724,
        -1.0955246686935425,
        37.996952056884766
      ],
      [
        0.028241991996765137,
        1.0909500122070312,
        0.09880451112985611,
        -122.11209869384766
      ],
      [
        0.0,
        0.0,
        0.0,
        1.0
      ]
    ],
    "dcmmeta_reorient_transform": [
      [
        0.0,
        -1.0,
        0.0,
        187.0
      ],
      [
        1.0,
        0.0,
        0.0,
        0.0
      ],
      [
        0.0,
        0.0,
        1.0,
        0.0
      ],
      [
        0.0,
        0.0,
        0.0,
        1.0
      ]
    ],
    "dcmmeta_shape": [
      188,
      188,
      46,
      216
    ],
    "dcmmeta_slice_dim": 2,
    "dcmmeta_version": 0.6,
    "global": {
      "const": {
        "AcquisitionMatrix": [
          188,
          0,
          0,
          188
        ],
        "AngioFlag": "N",
        "BitsAllocated": 16,
        "BitsStored": 12,
        "Columns": 1316,
        "EchoNumbers": 1,
        "EchoTime": 20.0,
        "EchoTrainLength": 1,
        "FlipAngle": 80.0,
        "HighBit": 11,
        "ImageOrientationPatient": [
          0.99965607384139,
          0.00483966320692,
          0.02577424474271,
          0.02523469108055,
          0.0899754175988,
          -0.9956242436753
        ],
        "ImagePositionPatient": [
          -738.30224844347,
          -115.02902322183,
          681.2628794347
        ],
        "ImageType": [
          "ORIGINAL",
          "PRIMARY",
          "M",
          "MB",
          "ND",
          "MOSAIC"
        ],
        "ImagedNucleus": "1H",
        "ImagingFrequency": 297.205427,
        "InPlanePhaseEncodingDirection": "COL",
        "LargestImagePixelValue": 4095,
        "MRAcquisitionType": "2D",
        "MagneticFieldStrength": 6.98,
        "Manufacturer": "SIEMENS",
        "ManufacturerModelName": "Investigational_Device_7T",
        "Modality": "MR",
        "NumberOfAverages": 1.0,
        "NumberOfPhaseEncodingSteps": 141,
        "PercentPhaseFieldOfView": 100.0,
        "PercentSampling": 100.0,
        "PerformedProcedureStepStartTime": "092300.593000",
        "PhotometricInterpretation": "MONOCHROME2",
        "PixelBandwidth": 1400.0,
        "PixelRepresentation": 0,
        "PixelSpacing": [
          1.0957447290421,
          1.0957447290421
        ],
        "ProtocolName": "cmrr_mbep2d_bold_AP_run3",
        "RepetitionTime": 2600.0,
        "Rows": 1316,
        "SAR": 0.09370049131591,
        "SamplesPerPixel": 1,
        "ScanOptions": [
          "PFP",
          "FS"
        ],
        "ScanningSequence": "EP",
        "SequenceName": "epfid2d1_188",
        "SequenceVariant": [
          "SK",
          "SS"
        ],
        "SeriesDescription": "cmrr_mbep2d_bold_AP_run3",
        "SeriesNumber": 13,
        "SeriesTime": "102335.921000",
        "SliceLocation": -48.098824003373,
        "SliceThickness": 1.1000000238419,
        "SmallestImagePixelValue": 0,
        "SoftwareVersions": "syngo MR B17",
        "SpacingBetweenSlices": 1.0999992668225,
        "SpecificCharacterSet": "ISO_IR 100",
        "StudyID": "1",
        "StudyTime": "092300.546000",
        "TransmitCoilName": "32Ch_Head_7T",
        "VariableFlipAngleFlag": "N",
        "WindowCenterWidthExplanation": "Algo1",
        "dBdt": 0.0
      },
      "slices": {}
    },
    "modality": "bold",
    "run_id": 3,
    "session_id": "SES04",
    "subject_id": "S02",
    "task_id": "auditory",
    "time": {
      "samples": {
        "AcquisitionNumber": [
          1,
          2,
          3,
          4,
          5,
          6,
          7,
          8,
          9,
          10,
          11,
          12,
          13,
          14,
          15,
          16,
          17,
          18,
          19,
          20,
          21,
          22,
          23,
          24,
          25,
          26,
          27,
          28,
          29,
          30,
          31,
          32,
          33,
          34,
          35,
          36,
          37,
          38,
          39,
          40,
          41,
          42,
          43,
          44,
          45,
          46,
          47,
          48,
          49,
          50,
          51,
          52,
          53,
          54,
          55,
          56,
          57,
          58,
          59,
          60,
          61,
          62,
          63,
          64,
          65,
          66,
          67,
          68,
          69,
          70,
          71,
          72,
          73,
          74,
          75,
          76,
          77,
          78,
          79,
          80,
          81,
          82,
          83,
          84,
          85,
          86,
          87,
          88,
          89,
          90,
          91,
          92,
          93,
          94,
          95,
          96,
          97,
          98,
          99,
          100,
          101,
          102,
          103,
          104,
          105,
          106,
          107,
          108,
          109,
          110,
          111,
          112,
          113,
          114,
          115,
          116,
          117,
          118,
          119,
          120,
          121,
          122,
          123,
          124,
          125,
          126,
          127,
          128,
          129,
          130,
          131,
          132,
          133,
          134,
          135,
          136,
          137,
          138,
          139,
          140,
          141,
          142,
          143,
          144,
          145,
          146,
          147,
          148,
          149,
          150,
          151,
          152,
          153,
          154,
          155,
          156,
          157,
          158,
          159,
          160,
          161,
          162,
          163,
          164,
          165,
          166,
          167,
          168,
          169,
          170,
          171,
          172,
          173,
          174,
          175,
          176,
          177,
          178,
          179,
          180,
          181,
          182,
          183,
          184,
          185,
          186,
          187,
          188,
          189,
          190,
          191,
          192,
          193,
          194,
          195,
          196,
          197,
          198,
          199,
          200,
          201,
          202,
          203,
          204,
          205,
          206,
          207,
          208,
          209,
          210,
          211,
          212,
          213,
          214,
          215,
          216
        ],
        "AcquisitionTime": [
          "102310.135000",
          "102312.745000",
          "102315.355000",
          "102317.967500",
          "102320.577500",
          "102323.187500",
          "102325.797500",
          "102328.407500",
          "102331.017500",
          "102333.630000",
          "102336.240000",
          "102338.850000",
          "102341.460000",
          "102344.070000",
          "102346.682500",
          "102349.292500",
          "102351.902500",
          "102354.512500",
          "102357.122500",
          "102359.732500",
          "102402.345000",
          "102404.955000",
          "102407.565000",
          "102410.175000",
          "102412.785000",
          "102415.395000",
          "102418.007500",
          "102420.617500",
          "102423.227500",
          "102425.837500",
          "102428.447500",
          "102431.060000",
          "102433.670000",
          "102436.280000",
          "102438.890000",
          "102441.500000",
          "102444.110000",
          "102446.722500",
          "102449.332500",
          "102451.942500",
          "102454.552500",
          "102457.162500",
          "102459.772500",
          "102502.385000",
          "102504.995000",
          "102507.605000",
          "102510.215000",
          "102512.825000",
          "102515.437500",
          "102518.047500",
          "102520.657500",
          "102523.267500",
          "102525.877500",
          "102528.487500",
          "102531.100000",
          "102533.710000",
          "102536.320000",
          "102538.930000",
          "102541.540000",
          "102544.150000",
          "102546.762500",
          "102549.372500",
          "102551.982500",
          "102554.592500",
          "102557.202500",
          "102559.815000",
          "102602.425000",
          "102605.035000",
          "102607.645000",
          "102610.255000",
          "102612.865000",
          "102615.477500",
          "102618.087500",
          "102620.697500",
          "102623.307500",
          "102625.917500",
          "102628.530000",
          "102631.140000",
          "102633.750000",
          "102636.360000",
          "102638.970000",
          "102641.580000",
          "102644.192500",
          "102646.802500",
          "102649.412500",
          "102652.022500",
          "102654.632500",
          "102657.242500",
          "102659.855000",
          "102702.465000",
          "102705.075000",
          "102707.685000",
          "102710.295000",
          "102712.907500",
          "102715.517500",
          "102718.127500",
          "102720.737500",
          "102723.347500",
          "102725.957500",
          "102728.570000",
          "102731.180000",
          "102733.790000",
          "102736.400000",
          "102739.010000",
          "102741.620000",
          "102744.232500",
          "102746.842500",
          "102749.452500",
          "102752.062500",
          "102754.672500",
          "102757.285000",
          "102759.895000",
          "102802.505000",
          "102805.115000",
          "102807.725000",
          "102810.335000",
          "102812.947500",
          "102815.557500",
          "102818.167500",
          "102820.777500",
          "102823.387500",
          "102825.997500",
          "102828.610000",
          "102831.220000",
          "102833.830000",
          "102836.440000",
          "102839.050000",
          "102841.662500",
          "102844.272500",
          "102846.882500",
          "102849.492500",
          "102852.102500",
          "102854.712500",
          "102857.325000",
          "102859.935000",
          "102902.545000",
          "102905.155000",
          "102907.765000",
          "102910.375000",
          "102912.987500",
          "102915.597500",
          "102918.207500",
          "102920.817500",
          "102923.427500",
          "102926.040000",
          "102928.650000",
          "102931.260000",
          "102933.870000",
          "102936.480000",
          "102939.090000",
          "102941.702500",
          "102944.312500",
          "102946.922500",
          "102949.532500",
          "102952.142500",
          "102954.752500",
          "102957.365000",
          "102959.975000",
          "103002.585000",
          "103005.195000",
          "103007.805000",
          "103010.417500",
          "103013.027500",
          "103015.637500",
          "103018.247500",
          "103020.857500",
          "103023.467500",
          "103026.080000",
          "103028.690000",
          "103031.300000",
          "103033.910000",
          "103036.520000",
          "103039.130000",
          "103041.742500",
          "103044.352500",
          "103046.962500",
          "103049.572500",
          "103052.182500",
          "103054.795000",
          "103057.405000",
          "103100.015000",
          "103102.625000",
          "103105.235000",
          "103107.845000",
          "103110.457500",
          "103113.067500",
          "103115.677500",
          "103118.287500",
          "103120.897500",
          "103123.507500",
          "103126.120000",
          "103128.730000",
          "103131.340000",
          "103133.950000",
          "103136.560000",
          "103139.172500",
          "103141.782500",
          "103144.392500",
          "103147.002500",
          "103149.612500",
          "103152.222500",
          "103154.835000",
          "103157.445000",
          "103200.055000",
          "103202.665000",
          "103205.275000",
          "103207.885000",
          "103210.497500",
          "103213.107500",
          "103215.717500",
          "103218.327500",
          "103220.937500",
          "103223.550000",
          "103226.160000",
          "103228.770000",
          "103231.380000"
        ],
        "ContentTime": [
          "102335.921000",
          "102335.921000",
          "102335.937000",
          "102335.937000",
          "102335.937000",
          "102335.937000",
          "102335.937000",
          "102335.937000",
          "102335.937000",
          "102435.921000",
          "102435.921000",
          "102435.921000",
          "102435.921000",
          "102435.937000",
          "102435.937000",
          "102435.937000",
          "102435.937000",
          "102435.937000",
          "102435.937000",
          "102435.937000",
          "102435.937000",
          "102435.953000",
          "102435.953000",
          "102435.953000",
          "102435.953000",
          "102435.953000",
          "102435.953000",
          "102435.953000",
          "102435.968000",
          "102435.968000",
          "102435.968000",
          "102435.968000",
          "102535.921000",
          "102535.921000",
          "102535.921000",
          "102535.921000",
          "102535.921000",
          "102535.937000",
          "102535.937000",
          "102535.937000",
          "102535.937000",
          "102535.937000",
          "102535.937000",
          "102535.937000",
          "102535.937000",
          "102535.953000",
          "102535.953000",
          "102535.953000",
          "102535.953000",
          "102535.953000",
          "102535.953000",
          "102535.953000",
          "102535.953000",
          "102535.968000",
          "102535.968000",
          "102635.921000",
          "102635.921000",
          "102635.921000",
          "102635.921000",
          "102635.921000",
          "102635.921000",
          "102635.921000",
          "102635.937000",
          "102635.937000",
          "102635.937000",
          "102635.937000",
          "102635.937000",
          "102635.937000",
          "102635.937000",
          "102635.953000",
          "102635.953000",
          "102635.953000",
          "102635.953000",
          "102635.953000",
          "102635.968000",
          "102635.968000",
          "102635.968000",
          "102635.968000",
          "102735.921000",
          "102735.921000",
          "102735.921000",
          "102735.921000",
          "102735.937000",
          "102735.937000",
          "102735.937000",
          "102735.937000",
          "102735.953000",
          "102735.953000",
          "102735.953000",
          "102735.953000",
          "102735.953000",
          "102735.953000",
          "102735.968000",
          "102735.968000",
          "102735.968000",
          "102735.968000",
          "102735.968000",
          "102735.968000",
          "102735.968000",
          "102735.984000",
          "102735.984000",
          "102835.921000",
          "102835.921000",
          "102835.921000",
          "102835.937000",
          "102835.937000",
          "102835.937000",
          "102835.937000",
          "102835.937000",
          "102835.937000",
          "102835.953000",
          "102835.953000",
          "102835.953000",
          "102835.953000",
          "102835.953000",
          "102835.953000",
          "102835.953000",
          "102835.968000",
          "102835.968000",
          "102835.968000",
          "102835.968000",
          "102835.968000",
          "102835.968000",
          "102835.968000",
          "102935.921000",
          "102935.921000",
          "102935.921000",
          "102935.921000",
          "102935.921000",
          "102935.921000",
          "102935.937000",
          "102935.937000",
          "102935.937000",
          "102935.937000",
          "102935.937000",
          "102935.937000",
          "102935.937000",
          "102935.953000",
          "102935.953000",
          "102935.953000",
          "102935.953000",
          "102935.953000",
          "102935.953000",
          "102935.953000",
          "102935.953000",
          "102935.968000",
          "102935.968000",
          "103035.906000",
          "103035.921000",
          "103035.921000",
          "103035.921000",
          "103035.921000",
          "103035.921000",
          "103035.937000",
          "103035.937000",
          "103035.937000",
          "103035.953000",
          "103035.953000",
          "103035.953000",
          "103035.953000",
          "103035.953000",
          "103035.953000",
          "103035.953000",
          "103035.968000",
          "103035.968000",
          "103035.968000",
          "103035.968000",
          "103035.968000",
          "103035.968000",
          "103035.968000",
          "103135.921000",
          "103135.921000",
          "103135.921000",
          "103135.921000",
          "103135.921000",
          "103135.921000",
          "103135.937000",
          "103135.937000",
          "103135.937000",
          "103135.937000",
          "103135.937000",
          "103135.937000",
          "103135.937000",
          "103135.937000",
          "103135.953000",
          "103135.953000",
          "103135.953000",
          "103135.953000",
          "103135.953000",
          "103135.953000",
          "103135.953000",
          "103135.968000",
          "103135.968000",
          "103235.921000",
          "103235.921000",
          "103235.921000",
          "103235.921000",
          "103235.921000",
          "103235.921000",
          "103235.921000",
          "103235.937000",
          "103235.937000",
          "103235.937000",
          "103235.937000",
          "103235.937000",
          "103235.953000",
          "103235.953000",
          "103235.953000",
          "103235.953000",
          "103235.953000",
          "103235.968000",
          "103235.968000",
          "103235.968000",
          "103235.968000",
          "103235.968000",
          "103238.453000"
        ],
        "InstanceCreationTime": [
          "102335.921000",
          "102335.921000",
          "102335.937000",
          "102335.937000",
          "102335.937000",
          "102335.937000",
          "102335.937000",
          "102335.937000",
          "102335.937000",
          "102435.921000",
          "102435.921000",
          "102435.921000",
          "102435.921000",
          "102435.937000",
          "102435.937000",
          "102435.937000",
          "102435.937000",
          "102435.937000",
          "102435.937000",
          "102435.937000",
          "102435.937000",
          "102435.953000",
          "102435.953000",
          "102435.953000",
          "102435.953000",
          "102435.953000",
          "102435.953000",
          "102435.953000",
          "102435.968000",
          "102435.968000",
          "102435.968000",
          "102435.968000",
          "102535.921000",
          "102535.921000",
          "102535.921000",
          "102535.921000",
          "102535.921000",
          "102535.937000",
          "102535.937000",
          "102535.937000",
          "102535.937000",
          "102535.937000",
          "102535.937000",
          "102535.937000",
          "102535.937000",
          "102535.953000",
          "102535.953000",
          "102535.953000",
          "102535.953000",
          "102535.953000",
          "102535.953000",
          "102535.953000",
          "102535.953000",
          "102535.968000",
          "102535.968000",
          "102635.921000",
          "102635.921000",
          "102635.921000",
          "102635.921000",
          "102635.921000",
          "102635.921000",
          "102635.921000",
          "102635.937000",
          "102635.937000",
          "102635.937000",
          "102635.937000",
          "102635.937000",
          "102635.937000",
          "102635.937000",
          "102635.953000",
          "102635.953000",
          "102635.953000",
          "102635.953000",
          "102635.953000",
          "102635.968000",
          "102635.968000",
          "102635.968000",
          "102635.968000",
          "102735.921000",
          "102735.921000",
          "102735.921000",
          "102735.921000",
          "102735.937000",
          "102735.937000",
          "102735.937000",
          "102735.937000",
          "102735.953000",
          "102735.953000",
          "102735.953000",
          "102735.953000",
          "102735.953000",
          "102735.953000",
          "102735.968000",
          "102735.968000",
          "102735.968000",
          "102735.968000",
          "102735.968000",
          "102735.968000",
          "102735.968000",
          "102735.984000",
          "102735.984000",
          "102835.921000",
          "102835.921000",
          "102835.921000",
          "102835.937000",
          "102835.937000",
          "102835.937000",
          "102835.937000",
          "102835.937000",
          "102835.937000",
          "102835.953000",
          "102835.953000",
          "102835.953000",
          "102835.953000",
          "102835.953000",
          "102835.953000",
          "102835.953000",
          "102835.968000",
          "102835.968000",
          "102835.968000",
          "102835.968000",
          "102835.968000",
          "102835.968000",
          "102835.968000",
          "102935.921000",
          "102935.921000",
          "102935.921000",
          "102935.921000",
          "102935.921000",
          "102935.921000",
          "102935.937000",
          "102935.937000",
          "102935.937000",
          "102935.937000",
          "102935.937000",
          "102935.937000",
          "102935.937000",
          "102935.953000",
          "102935.953000",
          "102935.953000",
          "102935.953000",
          "102935.953000",
          "102935.953000",
          "102935.953000",
          "102935.953000",
          "102935.968000",
          "102935.968000",
          "103035.906000",
          "103035.921000",
          "103035.921000",
          "103035.921000",
          "103035.921000",
          "103035.921000",
          "103035.937000",
          "103035.937000",
          "103035.937000",
          "103035.953000",
          "103035.953000",
          "103035.953000",
          "103035.953000",
          "103035.953000",
          "103035.953000",
          "103035.953000",
          "103035.968000",
          "103035.968000",
          "103035.968000",
          "103035.968000",
          "103035.968000",
          "103035.968000",
          "103035.968000",
          "103135.921000",
          "103135.921000",
          "103135.921000",
          "103135.921000",
          "103135.921000",
          "103135.921000",
          "103135.937000",
          "103135.937000",
          "103135.937000",
          "103135.937000",
          "103135.937000",
          "103135.937000",
          "103135.937000",
          "103135.937000",
          "103135.953000",
          "103135.953000",
          "103135.953000",
          "103135.953000",
          "103135.953000",
          "103135.953000",
          "103135.953000",
          "103135.968000",
          "103135.968000",
          "103235.921000",
          "103235.921000",
          "103235.921000",
          "103235.921000",
          "103235.921000",
          "103235.921000",
          "103235.921000",
          "103235.937000",
          "103235.937000",
          "103235.937000",
          "103235.937000",
          "103235.937000",
          "103235.953000",
          "103235.953000",
          "103235.953000",
          "103235.953000",
          "103235.953000",
          "103235.968000",
          "103235.968000",
          "103235.968000",
          "103235.968000",
          "103235.968000",
          "103238.453000"
        ],
        "InstanceNumber": [
          1,
          2,
          3,
          4,
          5,
          6,
          7,
          8,
          9,
          10,
          11,
          12,
          13,
          14,
          15,
          16,
          17,
          18,
          19,
          20,
          21,
          22,
          23,
          24,
          25,
          26,
          27,
          28,
          29,
          30,
          31,
          32,
          33,
          34,
          35,
          36,
          37,
          38,
          39,
          40,
          41,
          42,
          43,
          44,
          45,
          46,
          47,
          48,
          49,
          50,
          51,
          52,
          53,
          54,
          55,
          56,
          57,
          58,
          59,
          60,
          61,
          62,
          63,
          64,
          65,
          66,
          67,
          68,
          69,
          70,
          71,
          72,
          73,
          74,
          75,
          76,
          77,
          78,
          79,
          80,
          81,
          82,
          83,
          84,
          85,
          86,
          87,
          88,
          89,
          90,
          91,
          92,
          93,
          94,
          95,
          96,
          97,
          98,
          99,
          100,
          101,
          102,
          103,
          104,
          105,
          106,
          107,
          108,
          109,
          110,
          111,
          112,
          113,
          114,
          115,
          116,
          117,
          118,
          119,
          120,
          121,
          122,
          123,
          124,
          125,
          126,
          127,
          128,
          129,
          130,
          131,
          132,
          133,
          134,
          135,
          136,
          137,
          138,
          139,
          140,
          141,
          142,
          143,
          144,
          145,
          146,
          147,
          148,
          149,
          150,
          151,
          152,
          153,
          154,
          155,
          156,
          157,
          158,
          159,
          160,
          161,
          162,
          163,
          164,
          165,
          166,
          167,
          168,
          169,
          170,
