{
  "aor": 0.001092175925925926,
  "aqi": 0.024461014814814816,
  "bids_meta": {
    "AcquisitionMatrixPE": 188,
    "AcquisitionNumber": 1,
    "AcquisitionTime": "10:33:43.690000",
    "BandwidthPerPixelPhaseEncode": 19.46,
    "BaseResolution": 188,
    "ConversionSoftware": "dcm2niix",
    "ConversionSoftwareVersion": "v1.0.20180606 GCC4.8.5",
    "DelayTime": 1.2,
    "DerivedVendorReportedEchoSpacing": 0.000820013,
    "DeviceSerialNumber": "18930",
    "DwellTime": 1.9e-06,
    "EchoTime": 0.02,
    "EffectiveEchoSpacing": 0.000273338,
    "FlipAngle": 80,
    "ImageComments": "Unaliased_MB2_PE2",
    "ImageOrientationPatientDICOM": [
      0.999656,
      0.00483966,
      0.0257742,
      0.0252347,
      0.0899754,
      -0.995624
    ],
    "ImageType": [
      "ORIGINAL",
      "PRIMARY",
      "M",
      "MB",
      "ND",
      "MOSAIC"
    ],
    "InPlanePhaseEncodingDirectionDICOM": "COL",
    "InstitutionAddress": "Oxfordlaan_55_Maastricht_Limburg_NL_6229_EV",
    "InstitutionName": "Scannexus",
    "InstitutionalDepartmentName": "MRI_7T",
    "MRAcquisitionType": "2D",
    "MagneticFieldStrength": 6.98,
    "Manufacturer": "Siemens",
    "ManufacturersModelName": "Investigational_Device_7T",
    "Modality": "MR",
    "MultibandAccelerationFactor": 2,
    "ParallelReductionFactorInPlane": 3,
    "PartialFourier": 0.75,
    "PatientPosition": "HFS",
    "PercentPhaseFOV": 100,
    "PhaseEncodingDirection": "j",
    "PhaseEncodingSteps": 141,
    "PhaseResolution": 1,
    "PixelBandwidth": 1400,
    "ProcedureStepDescription": "FeDem_Faruk",
    "ProtocolName": "cmrr_mbep2d_bold_AP_run4",
    "PulseSequenceDetails": "%CustomerSeq%_cmrr_mbep2d_bold",
    "ReceiveCoilName": "32Ch_Head_7T",
    "ReconMatrixPE": 188,
    "RepetitionTime": 2.6,
    "SAR": 0.0936722,
    "ScanOptions": "PFP_FS",
    "ScanningSequence": "EP",
    "SequenceName": "epfid2d1_188",
    "SequenceVariant": "SK_SS",
    "SeriesDescription": "cmrr_mbep2d_bold_AP_run4",
    "SeriesNumber": 14,
    "ShimSetting": [
      170,
      -73,
      506,
      467,
      132,
      126,
      -201,
      91
    ],
    "SliceThickness": 1.1,
    "SliceTiming": [
      0,
      0.7325,
      0.06,
      0.795,
      0.1225,
      0.855,
      0.1825,
      0.9175,
      0.245,
      0.9775,
      0.305,
      1.04,
      0.3675,
      1.1,
      0.4275,
      1.16,
      0.49,
      1.2225,
      0.55,
      1.2825,
      0.61,
      1.345,
      0.6725,
      0,
      0.7325,
      0.06,
      0.795,
      0.1225,
      0.855,
      0.1825,
      0.9175,
      0.245,
      0.9775,
      0.305,
      1.04,
      0.3675,
      1.1,
      0.4275,
      1.16,
      0.49,
      1.2225,
      0.55,
      1.2825,
      0.61,
      1.345,
      0.6725
    ],
    "SoftwareVersions": "syngo_MR_B17",
    "SpacingBetweenSlices": 1.1,
    "StationName": "MRC18930",
    "TaskName": "auditory",
    "TotalReadoutTime": 0.0511141,
    "TxRefAmp": 255,
    "dataset": "ds001942",
    "dcmmeta_affine": [
      [
        -1.0953679084777832,
        0.027650779113173485,
        0.007851283065974712,
        99.74903106689453
      ],
      [
        -0.005303035490214825,
        0.09859009087085724,
        -1.0955246686935425,
        37.996952056884766
      ],
      [
        0.028241991996765137,
        1.0909500122070312,
        0.09880451112985611,
        -122.11209869384766
      ],
      [
        0.0,
        0.0,
        0.0,
        1.0
      ]
    ],
    "dcmmeta_reorient_transform": [
      [
        0.0,
        -1.0,
        0.0,
        187.0
      ],
      [
        1.0,
        0.0,
        0.0,
        0.0
      ],
      [
        0.0,
        0.0,
        1.0,
        0.0
      ],
      [
        0.0,
        0.0,
        0.0,
        1.0
      ]
    ],
    "dcmmeta_shape": [
      188,
      188,
      46,
      216
    ],
    "dcmmeta_slice_dim": 2,
    "dcmmeta_version": 0.6,
    "global": {
      "const": {
        "AcquisitionMatrix": [
          188,
          0,
          0,
          188
        ],
        "AngioFlag": "N",
        "BitsAllocated": 16,
        "BitsStored": 12,
        "Columns": 1316,
        "EchoNumbers": 1,
        "EchoTime": 20.0,
        "EchoTrainLength": 1,
        "FlipAngle": 80.0,
        "HighBit": 11,
        "ImageOrientationPatient": [
          0.99965607384139,
          0.00483966320692,
          0.02577424474271,
          0.02523469108055,
          0.0899754175988,
          -0.9956242436753
        ],
        "ImagePositionPatient": [
          -738.30224844347,
          -115.02902322183,
          681.2628794347
        ],
        "ImageType": [
          "ORIGINAL",
          "PRIMARY",
          "M",
          "MB",
          "ND",
          "MOSAIC"
        ],
        "ImagedNucleus": "1H",
        "ImagingFrequency": 297.205432,
        "InPlanePhaseEncodingDirection": "COL",
        "LargestImagePixelValue": 4095,
        "MRAcquisitionType": "2D",
        "MagneticFieldStrength": 6.98,
        "Manufacturer": "SIEMENS",
        "ManufacturerModelName": "Investigational_Device_7T",
        "Modality": "MR",
        "NumberOfAverages": 1.0,
        "NumberOfPhaseEncodingSteps": 141,
        "PercentPhaseFieldOfView": 100.0,
        "PercentSampling": 100.0,
        "PerformedProcedureStepStartTime": "092300.593000",
        "PhotometricInterpretation": "MONOCHROME2",
        "PixelBandwidth": 1400.0,
        "PixelRepresentation": 0,
        "PixelSpacing": [
          1.0957447290421,
          1.0957447290421
        ],
        "ProtocolName": "cmrr_mbep2d_bold_AP_run4",
        "RepetitionTime": 2600.0,
        "Rows": 1316,
        "SAR": 0.09367223674029,
        "SamplesPerPixel": 1,
        "ScanOptions": [
          "PFP",
          "FS"
        ],
        "ScanningSequence": "EP",
        "SequenceName": "epfid2d1_188",
        "SequenceVariant": [
          "SK",
          "SS"
        ],
        "SeriesDescription": "cmrr_mbep2d_bold_AP_run4",
        "SeriesNumber": 14,
        "SeriesTime": "103443.687000",
        "SliceLocation": -48.098824003373,
        "SliceThickness": 1.1000000238419,
        "SmallestImagePixelValue": 0,
        "SoftwareVersions": "syngo MR B17",
        "SpacingBetweenSlices": 1.0999992668225,
        "SpecificCharacterSet": "ISO_IR 100",
        "StudyID": "1",
        "StudyTime": "092300.546000",
        "TransmitCoilName": "32Ch_Head_7T",
        "VariableFlipAngleFlag": "N",
        "WindowCenterWidthExplanation": "Algo1",
        "dBdt": 0.0
      },
      "slices": {}
    },
    "modality": "bold",
    "run_id": 4,
    "session_id": "SES04",
    "subject_id": "S02",
    "task_id": "auditory",
    "time": {
      "samples": {
        "AcquisitionNumber": [
          1,
          2,
          3,
          4,
          5,
          6,
          7,
          8,
          9,
          10,
          11,
          12,
          13,
          14,
          15,
          16,
          17,
          18,
          19,
          20,
          21,
          22,
          23,
          24,
          25,
          26,
          27,
          28,
          29,
          30,
          31,
          32,
          33,
          34,
          35,
          36,
          37,
          38,
          39,
          40,
          41,
          42,
          43,
          44,
          45,
          46,
          47,
          48,
          49,
          50,
          51,
          52,
          53,
          54,
          55,
          56,
          57,
          58,
          59,
          60,
          61,
          62,
          63,
          64,
          65,
          66,
          67,
          68,
          69,
          70,
          71,
          72,
          73,
          74,
          75,
          76,
          77,
          78,
          79,
          80,
          81,
          82,
          83,
          84,
          85,
          86,
          87,
          88,
          89,
          90,
          91,
          92,
          93,
          94,
          95,
          96,
          97,
          98,
          99,
          100,
          101,
          102,
          103,
          104,
          105,
          106,
          107,
          108,
          109,
          110,
          111,
          112,
          113,
          114,
          115,
          116,
          117,
          118,
          119,
          120,
          121,
          122,
          123,
          124,
          125,
          126,
          127,
          128,
          129,
          130,
          131,
          132,
          133,
          134,
          135,
          136,
          137,
          138,
          139,
          140,
          141,
          142,
          143,
          144,
          145,
          146,
          147,
          148,
          149,
          150,
          151,
          152,
          153,
          154,
          155,
          156,
          157,
          158,
          159,
          160,
          161,
          162,
          163,
          164,
          165,
          166,
          167,
          168,
          169,
          170,
          171,
          172,
          173,
          174,
          175,
          176,
          177,
          178,
          179,
          180,
          181,
          182,
          183,
          184,
          185,
          186,
          187,
          188,
          189,
          190,
          191,
          192,
          193,
          194,
          195,
          196,
          197,
          198,
          199,
          200,
          201,
          202,
          203,
          204,
          205,
          206,
          207,
          208,
          209,
          210,
          211,
          212,
          213,
          214,
          215,
          216
        ],
        "AcquisitionTime": [
          "103343.690000",
          "103346.300000",
          "103348.910000",
          "103351.522500",
          "103354.132500",
          "103356.742500",
          "103359.352500",
          "103401.962500",
          "103404.572500",
          "103407.185000",
          "103409.795000",
          "103412.405000",
          "103415.015000",
          "103417.625000",
          "103420.237500",
          "103422.847500",
          "103425.457500",
          "103428.067500",
          "103430.677500",
          "103433.287500",
          "103435.900000",
          "103438.510000",
          "103441.120000",
          "103443.730000",
          "103446.340000",
          "103448.950000",
          "103451.562500",
          "103454.172500",
          "103456.782500",
          "103459.392500",
          "103502.002500",
          "103504.615000",
          "103507.225000",
          "103509.835000",
          "103512.445000",
          "103515.055000",
          "103517.665000",
          "103520.277500",
          "103522.887500",
          "103525.497500",
          "103528.107500",
          "103530.717500",
          "103533.327500",
          "103535.940000",
          "103538.550000",
          "103541.160000",
          "103543.770000",
          "103546.380000",
          "103548.992500",
          "103551.602500",
          "103554.212500",
          "103556.822500",
          "103559.432500",
          "103602.042500",
          "103604.655000",
          "103607.265000",
          "103609.875000",
          "103612.485000",
          "103615.095000",
          "103617.705000",
          "103620.317500",
          "103622.927500",
          "103625.537500",
          "103628.147500",
          "103630.757500",
          "103633.370000",
          "103635.980000",
          "103638.590000",
          "103641.200000",
          "103643.810000",
          "103646.420000",
          "103649.032500",
          "103651.642500",
          "103654.252500",
          "103656.862500",
          "103659.472500",
          "103702.082500",
          "103704.695000",
          "103707.305000",
          "103709.915000",
          "103712.525000",
          "103715.135000",
          "103717.747500",
          "103720.357500",
          "103722.967500",
          "103725.577500",
          "103728.187500",
          "103730.797500",
          "103733.410000",
          "103736.020000",
          "103738.630000",
          "103741.240000",
          "103743.850000",
          "103746.460000",
          "103749.072500",
          "103751.682500",
          "103754.292500",
          "103756.902500",
          "103759.512500",
          "103802.125000",
          "103804.735000",
          "103807.345000",
          "103809.955000",
          "103812.565000",
          "103815.175000",
          "103817.787500",
          "103820.397500",
          "103823.007500",
          "103825.617500",
          "103828.227500",
          "103830.837500",
          "103833.450000",
          "103836.060000",
          "103838.670000",
          "103841.280000",
          "103843.890000",
          "103846.502500",
          "103849.112500",
          "103851.722500",
          "103854.332500",
          "103856.942500",
          "103859.552500",
          "103902.165000",
          "103904.775000",
          "103907.385000",
          "103909.995000",
          "103912.605000",
          "103915.215000",
          "103917.827500",
          "103920.437500",
          "103923.047500",
          "103925.657500",
          "103928.267500",
          "103930.880000",
          "103933.490000",
          "103936.100000",
          "103938.710000",
          "103941.320000",
          "103943.930000",
          "103946.542500",
          "103949.152500",
          "103951.762500",
          "103954.372500",
          "103956.982500",
          "103959.592500",
          "104002.205000",
          "104004.815000",
          "104007.425000",
          "104010.035000",
          "104012.645000",
          "104015.257500",
          "104017.867500",
          "104020.477500",
          "104023.087500",
          "104025.697500",
          "104028.307500",
          "104030.920000",
          "104033.530000",
          "104036.140000",
          "104038.750000",
          "104041.360000",
          "104043.970000",
          "104046.582500",
          "104049.192500",
          "104051.802500",
          "104054.412500",
          "104057.022500",
          "104059.635000",
          "104102.245000",
          "104104.855000",
          "104107.465000",
          "104110.075000",
          "104112.685000",
          "104115.297500",
          "104117.907500",
          "104120.517500",
          "104123.127500",
          "104125.737500",
          "104128.347500",
          "104130.960000",
          "104133.570000",
          "104136.180000",
          "104138.790000",
          "104141.400000",
          "104144.012500",
          "104146.622500",
          "104149.232500",
          "104151.842500",
          "104154.452500",
          "104157.062500",
          "104159.675000",
          "104202.285000",
          "104204.895000",
          "104207.505000",
          "104210.115000",
          "104212.725000",
          "104215.337500",
          "104217.947500",
          "104220.557500",
          "104223.167500",
          "104225.777500",
          "104228.390000",
          "104231.000000",
          "104233.610000",
          "104236.220000",
          "104238.830000",
          "104241.440000",
          "104244.052500",
          "104246.662500",
          "104249.272500",
          "104251.882500",
          "104254.492500",
          "104257.102500",
          "104259.715000",
          "104302.325000",
          "104304.935000"
        ],
        "ContentTime": [
          "103443.687000",
          "103443.687000",
          "103443.687000",
          "103443.687000",
          "103443.703000",
          "103443.703000",
          "103443.703000",
          "103443.703000",
          "103443.718000",
          "103443.718000",
          "103443.718000",
          "103443.718000",
          "103443.718000",
          "103443.718000",
          "103443.718000",
          "103443.734000",
          "103443.734000",
          "103443.734000",
          "103443.734000",
          "103443.734000",
          "103443.750000",
          "103443.750000",
          "103543.687000",
          "103543.687000",
          "103543.687000",
          "103543.687000",
          "103543.687000",
          "103543.687000",
          "103543.687000",
          "103543.703000",
          "103543.703000",
          "103543.703000",
          "103543.703000",
          "103543.703000",
          "103543.703000",
          "103543.703000",
          "103543.703000",
          "103543.718000",
          "103543.718000",
          "103543.718000",
          "103543.718000",
          "103543.734000",
          "103543.734000",
          "103543.734000",
          "103543.734000",
          "103643.687000",
          "103643.687000",
          "103643.687000",
          "103643.687000",
          "103643.687000",
          "103643.687000",
          "103643.687000",
          "103643.703000",
          "103643.703000",
          "103643.703000",
          "103643.703000",
          "103643.703000",
          "103643.703000",
          "103643.703000",
          "103643.718000",
          "103643.718000",
          "103643.718000",
          "103643.718000",
          "103643.718000",
          "103643.734000",
          "103643.734000",
          "103643.734000",
          "103643.734000",
          "103743.671000",
          "103743.687000",
          "103743.687000",
          "103743.687000",
          "103743.687000",
          "103743.687000",
          "103743.703000",
          "103743.703000",
          "103743.718000",
          "103743.718000",
          "103743.718000",
          "103743.718000",
          "103743.718000",
          "103743.718000",
          "103743.734000",
          "103743.734000",
          "103743.734000",
          "103743.734000",
          "103743.734000",
          "103743.750000",
          "103743.750000",
          "103743.750000",
          "103743.750000",
          "103843.671000",
          "103843.687000",
          "103843.687000",
          "103843.687000",
          "103843.687000",
          "103843.687000",
          "103843.687000",
          "103843.687000",
          "103843.703000",
          "103843.703000",
          "103843.703000",
          "103843.703000",
          "103843.703000",
          "103843.703000",
          "103843.703000",
          "103843.718000",
          "103843.718000",
          "103843.718000",
          "103843.718000",
          "103843.718000",
          "103843.718000",
          "103843.734000",
          "103843.734000",
          "103943.687000",
          "103943.687000",
          "103943.687000",
          "103943.687000",
          "103943.687000",
          "103943.687000",
          "103943.687000",
          "103943.703000",
          "103943.703000",
          "103943.703000",
          "103943.703000",
          "103943.703000",
          "103943.703000",
          "103943.703000",
          "103943.718000",
          "103943.718000",
          "103943.718000",
          "103943.718000",
          "103943.718000",
          "103943.718000",
          "103943.718000",
          "103943.734000",
          "103943.734000",
          "104043.687000",
          "104043.687000",
          "104043.687000",
          "104043.687000",
          "104043.687000",
          "104043.687000",
          "104043.703000",
          "104043.703000",
          "104043.703000",
          "104043.703000",
          "104043.703000",
          "104043.703000",
          "104043.718000",
          "104043.718000",
          "104043.718000",
          "104043.718000",
          "104043.718000",
          "104043.718000",
          "104043.718000",
          "104043.734000",
          "104043.734000",
          "104043.734000",
          "104043.734000",
          "104143.687000",
          "104143.687000",
          "104143.687000",
          "104143.687000",
          "104143.687000",
          "104143.687000",
          "104143.703000",
          "104143.703000",
          "104143.703000",
          "104143.703000",
          "104143.703000",
          "104143.703000",
          "104143.703000",
          "104143.718000",
          "104143.718000",
          "104143.718000",
          "104143.718000",
          "104143.718000",
          "104143.734000",
          "104143.734000",
          "104143.734000",
          "104143.734000",
          "104143.734000",
          "104243.687000",
          "104243.687000",
          "104243.687000",
          "104243.687000",
          "104243.687000",
          "104243.703000",
          "104243.703000",
          "104243.703000",
          "104243.703000",
          "104243.703000",
          "104243.703000",
          "104243.703000",
          "104243.718000",
          "104243.718000",
          "104243.718000",
          "104243.718000",
          "104243.718000",
          "104243.718000",
          "104243.718000",
          "104243.734000",
          "104243.734000",
          "104243.734000",
          "104243.734000",
          "104303.687000",
          "104303.687000",
          "104303.687000",
          "104303.687000",
          "104303.687000",
          "104303.687000",
          "104303.687000",
          "104303.703000",
          "104312.609000",
          "104312.609000"
        ],
        "InstanceCreationTime": [
          "103443.687000",
          "103443.687000",
          "103443.687000",
          "103443.687000",
          "103443.703000",
          "103443.703000",
          "103443.703000",
          "103443.703000",
          "103443.718000",
          "103443.718000",
          "103443.718000",
          "103443.718000",
          "103443.718000",
          "103443.718000",
          "103443.718000",
          "103443.734000",
          "103443.734000",
          "103443.734000",
          "103443.734000",
          "103443.734000",
          "103443.750000",
          "103443.750000",
          "103543.687000",
          "103543.687000",
          "103543.687000",
          "103543.687000",
          "103543.687000",
          "103543.687000",
          "103543.687000",
          "103543.703000",
          "103543.703000",
          "103543.703000",
          "103543.703000",
          "103543.703000",
          "103543.703000",
          "103543.703000",
          "103543.703000",
          "103543.718000",
          "103543.718000",
          "103543.718000",
          "103543.718000",
          "103543.734000",
          "103543.734000",
          "103543.734000",
          "103543.734000",
          "103643.687000",
          "103643.687000",
          "103643.687000",
          "103643.687000",
          "103643.687000",
          "103643.687000",
          "103643.687000",
          "103643.703000",
          "103643.703000",
          "103643.703000",
          "103643.703000",
          "103643.703000",
          "103643.703000",
          "103643.703000",
          "103643.718000",
          "103643.718000",
          "103643.718000",
          "103643.718000",
          "103643.718000",
          "103643.734000",
          "103643.734000",
          "103643.734000",
          "103643.734000",
          "103743.671000",
          "103743.687000",
          "103743.687000",
          "103743.687000",
          "103743.687000",
          "103743.687000",
          "103743.703000",
          "103743.703000",
          "103743.718000",
          "103743.718000",
          "103743.718000",
          "103743.718000",
          "103743.718000",
          "103743.718000",
          "103743.734000",
          "103743.734000",
          "103743.734000",
          "103743.734000",
          "103743.734000",
          "103743.750000",
          "103743.750000",
          "103743.750000",
          "103743.750000",
          "103843.671000",
          "103843.687000",
          "103843.687000",
          "103843.687000",
          "103843.687000",
          "103843.687000",
          "103843.687000",
          "103843.687000",
          "103843.703000",
          "103843.703000",
          "103843.703000",
          "103843.703000",
          "103843.703000",
          "103843.703000",
          "103843.703000",
          "103843.718000",
          "103843.718000",
          "103843.718000",
          "103843.718000",
          "103843.718000",
          "103843.718000",
          "103843.734000",
          "103843.734000",
          "103943.687000",
          "103943.687000",
          "103943.687000",
          "103943.687000",
          "103943.687000",
          "103943.687000",
          "103943.687000",
          "103943.703000",
          "103943.703000",
          "103943.703000",
          "103943.703000",
          "103943.703000",
          "103943.703000",
          "103943.703000",
          "103943.718000",
          "103943.718000",
          "103943.718000",
          "103943.718000",
          "103943.718000",
          "103943.718000",
          "103943.718000",
          "103943.734000",
          "103943.734000",
          "104043.687000",
          "104043.687000",
          "104043.687000",
          "104043.687000",
          "104043.687000",
          "104043.687000",
          "104043.703000",
          "104043.703000",
          "104043.703000",
          "104043.703000",
          "104043.703000",
          "104043.703000",
          "104043.718000",
          "104043.718000",
          "104043.718000",
          "104043.718000",
          "104043.718000",
          "104043.718000",
          "104043.718000",
          "104043.734000",
          "104043.734000",
          "104043.734000",
          "104043.734000",
          "104143.687000",
          "104143.687000",
          "104143.687000",
          "104143.687000",
          "104143.687000",
          "104143.687000",
          "104143.703000",
          "104143.703000",
          "104143.703000",
          "104143.703000",
          "104143.703000",
          "104143.703000",
          "104143.703000",
          "104143.718000",
          "104143.718000",
          "104143.718000",
          "104143.718000",
          "104143.718000",
          "104143.734000",
          "104143.734000",
          "104143.734000",
          "104143.734000",
          "104143.734000",
          "104243.687000",
          "104243.687000",
          "104243.687000",
          "104243.687000",
          "104243.687000",
          "104243.703000",
          "104243.703000",
          "104243.703000",
          "104243.703000",
          "104243.703000",
          "104243.703000",
          "104243.703000",
          "104243.718000",
          "104243.718000",
          "104243.718000",
          "104243.718000",
          "104243.718000",
          "104243.718000",
          "104243.718000",
          "104243.734000",
          "104243.734000",
          "104243.734000",
          "104243.734000",
          "104303.687000",
          "104303.687000",
          "104303.687000",
          "104303.687000",
          "104303.687000",
          "104303.687000",
          "104303.687000",
          "104303.703000",
          "104312.609000",
          "104312.609000"
        ],
        "InstanceNumber": [
          1,
          2,
          3,
          4,
          5,
          6,
          7,
          8,
          9,
          10,
          11,
          12,
          13,
          14,
          15,
          16,
          17,
          18,
          19,
          20,
          21,
          22,
          23,
          24,
          25,
          26,
          27,
          28,
          29,
          30,
          31,
          32,
          33,
          34,
          35,
          36,
          37,
          38,
          39,
          40,
          41,
          42,
          43,
          44,
          45,
          46,
          47,
          48,
          49,
          50,
          51,
          52,
          53,
          54,
          55,
          56,
          57,
          58,
          59,
          60,
          61,
          62,
          63,
          64,
          65,
          66,
          67,
          68,
          69,
          70,
          71,
          72,
          73,
          74,
          75,
          76,
          77,
          78,
          79,
          80,
          81,
          82,
          83,
          84,
          85,
          86,
          87,
          88,
          89,
          90,
          91,
          92,
          93,
          94,
          95,
          96,
          97,
          98,
          99,
          100,
          101,
          102,
          103,
          104,
          105,
          106,
          107,
          108,
          109,
          110,
          111,
          112,
          113,
          114,
          115,
          116,
          117,
          118,
          119,
          120,
          121,
          122,
          123,
          124,
          125,
          126,
          127,
          128,
          129,
          130,
          131,
          132,
          133,
          134,
          135,
          136,
          137,
          138,
          139,
          140,
          141,
          142,
          143,
          144,
          145,
          146,
          147,
          148,
          149,
          150,
          151,
          152,
          153,
          154,
          155,
          156,
          157,
          158,
          159,
          160,
          161,
          162,
          163,
          164,
          165,
          166,
          167,
          168,
          169,
          170,
