{
  "aor": 0.0006004666666666666,
  "aqi": 0.013043986,
  "bids_meta": {
    "AcquisitionMatrixPE": 188,
    "AcquisitionNumber": 1,
    "AcquisitionTime": "12:37:41.175000",
    "BandwidthPerPixelPhaseEncode": 19.46,
    "BaseResolution": 188,
    "CogAtlasID": "TODO",
    "ConversionSoftware": "dcm2niix",
    "ConversionSoftwareVersion": "v1.0.20180606 GCC4.8.5",
    "DelayTime": 1.2,
    "DerivedVendorReportedEchoSpacing": 0.000820013,
    "DeviceSerialNumber": "18930",
    "DwellTime": 1.9e-06,
    "EchoTime": 0.02,
    "EffectiveEchoSpacing": 0.000273338,
    "FlipAngle": 80,
    "ImageComments": "Unaliased_MB2_PE2",
    "ImageOrientationPatientDICOM": [
      0.997181,
      0.0711839,
      -0.0237294,
      -0.0291347,
      0.0758841,
      -0.996691
    ],
    "ImageType": [
      "ORIGINAL",
      "PRIMARY",
      "M",
      "MB",
      "ND",
      "MOSAIC"
    ],
    "InPlanePhaseEncodingDirectionDICOM": "COL",
    "InstitutionAddress": "Oxfordlaan_55_Maastricht_753AAF_Limburg_NL_6229_EV",
    "InstitutionName": "Scannexus",
    "InstitutionalDepartmentName": "MRI_7T",
    "MRAcquisitionType": "2D",
    "MagneticFieldStrength": 6.98,
    "Manufacturer": "Siemens",
    "ManufacturersModelName": "Investigational_Device_7T",
    "Modality": "MR",
    "MultibandAccelerationFactor": 2,
    "ParallelReductionFactorInPlane": 3,
    "PartialFourier": 0.75,
    "PatientPosition": "HFS",
    "PercentPhaseFOV": 100,
    "PhaseEncodingDirection": "j",
    "PhaseEncodingSteps": 141,
    "PhaseResolution": 1,
    "PixelBandwidth": 1400,
    "ProcedureStepDescription": "FeDem_Faruk",
    "ProtocolName": "cmrr_mbep2d_bold_AP_run2",
    "PulseSequenceDetails": "%CustomerSeq%_cmrr_mbep2d_bold",
    "ReceiveCoilName": "32Ch_Head_7T",
    "ReconMatrixPE": 188,
    "RepetitionTime": 2.6,
    "SAR": 0.0982072,
    "ScanOptions": "PFP_FS",
    "ScanningSequence": "EP",
    "SequenceName": "epfid2d1_188",
    "SequenceVariant": "SK_SS",
    "SeriesDescription": "cmrr_mbep2d_bold_AP_run2",
    "SeriesNumber": 17,
    "ShimSetting": [
      124,
      -13,
      480,
      316,
      30,
      25,
      -149,
      154
    ],
    "SliceThickness": 1.1,
    "SliceTiming": [
      0,
      0.7325,
      0.06,
      0.795,
      0.1225,
      0.855,
      0.1825,
      0.9175,
      0.245,
      0.9775,
      0.305,
      1.0375,
      0.3675,
      1.1,
      0.4275,
      1.16,
      0.4875,
      1.2225,
      0.55,
      1.2825,
      0.61,
      1.345,
      0.6725,
      0,
      0.7325,
      0.06,
      0.795,
      0.1225,
      0.855,
      0.1825,
      0.9175,
      0.245,
      0.9775,
      0.305,
      1.0375,
      0.3675,
      1.1,
      0.4275,
      1.16,
      0.4875,
      1.2225,
      0.55,
      1.2825,
      0.61,
      1.345,
      0.6725
    ],
    "SoftwareVersions": "syngo_MR_B17",
    "SpacingBetweenSlices": 1.1,
    "StationName": "MRC18930",
    "TaskName": "auditory",
    "TotalReadoutTime": 0.0511141,
    "TxRefAmp": 240,
    "dataset": "ds001942",
    "dcmmeta_affine": [
      [
        -1.0926557779312134,
        -0.03192422166466713,
        0.07606232911348343,
        100.94556427001953
      ],
      [
        -0.07799933105707169,
        0.08314957469701767,
        -1.0940289497375488,
        45.8215217590332
      ],
      [
        -0.026001356542110443,
        1.0921188592910767,
        0.08551841974258423,
        -111.3921890258789
      ],
      [
        0.0,
        0.0,
        0.0,
        1.0
      ]
    ],
    "dcmmeta_reorient_transform": [
      [
        0.0,
        -1.0,
        0.0,
        187.0
      ],
      [
        1.0,
        0.0,
        0.0,
        0.0
      ],
      [
        0.0,
        0.0,
        1.0,
        0.0
      ],
      [
        0.0,
        0.0,
        0.0,
        1.0
      ]
    ],
    "dcmmeta_shape": [
      188,
      188,
      46,
      150
    ],
    "dcmmeta_slice_dim": 2,
    "dcmmeta_version": 0.6,
    "global": {
      "const": {
        "AcquisitionMatrix": [
          188,
          0,
          0,
          188
        ],
        "AngioFlag": "N",
        "BitsAllocated": 16,
        "BitsStored": 12,
        "Columns": 1316,
        "EchoNumbers": 1,
        "EchoTime": 20.0,
        "EchoTrainLength": 1,
        "FlipAngle": 80.0,
        "HighBit": 11,
        "ImageOrientationPatient": [
          0.99718091373392,
          0.07118385490261,
          -0.0237293928702,
          -0.0291347245826,
          0.07588407592936,
          -0.9966909123915
        ],
        "ImagePositionPatient": [
          -693.22830466268,
          -152.25847882604,
          723.45380250763
        ],
        "ImageType": [
          "ORIGINAL",
          "PRIMARY",
          "M",
          "MB",
          "ND",
          "MOSAIC"
        ],
        "ImagedNucleus": "1H",
        "ImagingFrequency": 297.205587,
        "InPlanePhaseEncodingDirection": "COL",
        "LargestImagePixelValue": 4095,
        "MRAcquisitionType": "2D",
        "MagneticFieldStrength": 6.98,
        "Manufacturer": "SIEMENS",
        "ManufacturerModelName": "Investigational_Device_7T",
        "Modality": "MR",
        "NumberOfAverages": 1.0,
        "NumberOfPhaseEncodingSteps": 141,
        "PercentPhaseFieldOfView": 100.0,
        "PercentSampling": 100.0,
        "PerformedProcedureStepStartTime": "115418.265000",
        "PhotometricInterpretation": "MONOCHROME2",
        "PixelBandwidth": 1400.0,
        "PixelRepresentation": 0,
        "PixelSpacing": [
          1.0957447290421,
          1.0957447290421
        ],
        "ProtocolName": "cmrr_mbep2d_bold_AP_run2",
        "RepetitionTime": 2600.0,
        "Rows": 1316,
        "SAR": 0.09820719934465,
        "SamplesPerPixel": 1,
        "ScanOptions": [
          "PFP",
          "FS"
        ],
        "ScanningSequence": "EP",
        "SequenceName": "epfid2d1_188",
        "SequenceVariant": [
          "SK",
          "SS"
        ],
        "SeriesDescription": "cmrr_mbep2d_bold_AP_run2",
        "SeriesNumber": 17,
        "SeriesTime": "123749.921000",
        "SliceLocation": -47.252764297263,
        "SliceThickness": 1.1000000238419,
        "SmallestImagePixelValue": 0,
        "SoftwareVersions": "syngo MR B17",
        "SpacingBetweenSlices": 1.099999210794,
        "SpecificCharacterSet": "ISO_IR 100",
        "StudyID": "1",
        "StudyTime": "115418.140000",
        "TransmitCoilName": "32Ch_Head_7T",
        "VariableFlipAngleFlag": "N",
        "WindowCenterWidthExplanation": "Algo1",
        "dBdt": 0.0
      },
      "slices": {}
    },
    "modality": "bold",
    "run_id": 2,
    "session_id": "SES02",
    "subject_id": "S11",
    "task_id": "auditory",
    "time": {
      "samples": {
        "AcquisitionNumber": [
          1,
          2,
          3,
          4,
          5,
          6,
          7,
          8,
          9,
          10,
          11,
          12,
          13,
          14,
          15,
          16,
          17,
          18,
          19,
          20,
          21,
          22,
          23,
          24,
          25,
          26,
          27,
          28,
          29,
          30,
          31,
          32,
          33,
          34,
          35,
          36,
          37,
          38,
          39,
          40,
          41,
          42,
          43,
          44,
          45,
          46,
          47,
          48,
          49,
          50,
          51,
          52,
          53,
          54,
          55,
          56,
          57,
          58,
          59,
          60,
          61,
          62,
          63,
          64,
          65,
          66,
          67,
          68,
          69,
          70,
          71,
          72,
          73,
          74,
          75,
          76,
          77,
          78,
          79,
          80,
          81,
          82,
          83,
          84,
          85,
          86,
          87,
          88,
          89,
          90,
          91,
          92,
          93,
          94,
          95,
          96,
          97,
          98,
          99,
          100,
          101,
          102,
          103,
          104,
          105,
          106,
          107,
          108,
          109,
          110,
          111,
          112,
          113,
          114,
          115,
          116,
          117,
          118,
          119,
          120,
          121,
          122,
          123,
          124,
          125,
          126,
          127,
          128,
          129,
          130,
          131,
          132,
          133,
          134,
          135,
          136,
          137,
          138,
          139,
          140,
          141,
          142,
          143,
          144,
          145,
          146,
          147,
          148,
          149,
          150
        ],
        "AcquisitionTime": [
          "123741.175000",
          "123743.785000",
          "123746.395000",
          "123749.005000",
          "123751.617500",
          "123754.227500",
          "123756.837500",
          "123759.447500",
          "123802.057500",
          "123804.667500",
          "123807.280000",
          "123809.890000",
          "123812.500000",
          "123815.110000",
          "123817.720000",
          "123820.332500",
          "123822.942500",
          "123825.552500",
          "123828.162500",
          "123830.772500",
          "123833.382500",
          "123835.995000",
          "123838.605000",
          "123841.215000",
          "123843.825000",
          "123846.435000",
          "123849.045000",
          "123851.657500",
          "123854.267500",
          "123856.877500",
          "123859.487500",
          "123902.097500",
          "123904.710000",
          "123907.320000",
          "123909.930000",
          "123912.540000",
          "123915.150000",
          "123917.760000",
          "123920.372500",
          "123922.982500",
          "123925.592500",
          "123928.202500",
          "123930.812500",
          "123933.422500",
          "123936.035000",
          "123938.645000",
          "123941.255000",
          "123943.865000",
          "123946.475000",
          "123949.087500",
          "123951.697500",
          "123954.307500",
          "123956.917500",
          "123959.527500",
          "124002.137500",
          "124004.750000",
          "124007.360000",
          "124009.970000",
          "124012.580000",
          "124015.190000",
          "124017.800000",
          "124020.412500",
          "124023.022500",
          "124025.632500",
          "124028.242500",
          "124030.852500",
          "124033.465000",
          "124036.075000",
          "124038.685000",
          "124041.295000",
          "124043.905000",
          "124046.515000",
          "124049.127500",
          "124051.737500",
          "124054.347500",
          "124056.957500",
          "124059.567500",
          "124102.177500",
          "124104.790000",
          "124107.400000",
          "124110.010000",
          "124112.620000",
          "124115.230000",
          "124117.842500",
          "124120.452500",
          "124123.062500",
          "124125.672500",
          "124128.282500",
          "124130.892500",
          "124133.505000",
          "124136.115000",
          "124138.725000",
          "124141.335000",
          "124143.945000",
          "124146.555000",
          "124149.167500",
          "124151.777500",
          "124154.387500",
          "124156.997500",
          "124159.607500",
          "124202.220000",
          "124204.830000",
          "124207.440000",
          "124210.050000",
          "124212.660000",
          "124215.270000",
          "124217.882500",
          "124220.492500",
          "124223.102500",
          "124225.712500",
          "124228.322500",
          "124230.932500",
          "124233.545000",
          "124236.155000",
          "124238.765000",
          "124241.375000",
          "124243.985000",
          "124246.597500",
          "124249.207500",
          "124251.817500",
          "124254.427500",
          "124257.037500",
          "124259.647500",
          "124302.260000",
          "124304.870000",
          "124307.480000",
          "124310.090000",
          "124312.700000",
          "124315.310000",
          "124317.922500",
          "124320.532500",
          "124323.142500",
          "124325.752500",
          "124328.362500",
          "124330.975000",
          "124333.585000",
          "124336.195000",
          "124338.805000",
          "124341.415000",
          "124344.025000",
          "124346.637500",
          "124349.247500",
          "124351.857500",
          "124354.467500",
          "124357.077500",
          "124359.690000",
          "124402.300000",
          "124404.910000",
          "124407.520000",
          "124410.130000"
        ],
        "ContentTime": [
          "123749.921000",
          "123750.421000",
          "123750.921000",
          "123752.921000",
          "123755.421000",
          "123757.921000",
          "123800.921000",
          "123803.421000",
          "123805.921000",
          "123808.421000",
          "123811.421000",
          "123813.921000",
          "123816.421000",
          "123818.921000",
          "123821.421000",
          "123824.421000",
          "123826.921000",
          "123829.421000",
          "123831.921000",
          "123834.421000",
          "123837.421000",
          "123839.921000",
          "123842.421000",
          "123844.921000",
          "123847.421000",
          "123850.421000",
          "123852.921000",
          "123855.421000",
          "123857.921000",
          "123900.421000",
          "123903.421000",
          "123905.921000",
          "123908.421000",
          "123910.921000",
          "123913.421000",
          "123915.921000",
          "123918.921000",
          "123921.421000",
          "123923.921000",
          "123926.421000",
          "123928.921000",
          "123931.921000",
          "123934.421000",
          "123936.921000",
          "123939.421000",
          "123942.421000",
          "123944.921000",
          "123947.421000",
          "123949.921000",
          "123952.421000",
          "123955.421000",
          "123957.921000",
          "124000.421000",
          "124002.921000",
          "124005.421000",
          "124008.421000",
          "124010.921000",
          "124013.421000",
          "124015.921000",
          "124018.421000",
          "124021.421000",
          "124023.921000",
          "124026.421000",
          "124028.921000",
          "124031.421000",
          "124034.421000",
          "124036.921000",
          "124039.421000",
          "124041.921000",
          "124044.421000",
          "124047.421000",
          "124049.921000",
          "124052.421000",
          "124054.921000",
          "124057.421000",
          "124100.421000",
          "124102.921000",
          "124105.421000",
          "124107.921000",
          "124110.421000",
          "124113.421000",
          "124115.921000",
          "124118.421000",
          "124120.921000",
          "124123.421000",
          "124125.921000",
          "124128.921000",
          "124131.421000",
          "124133.921000",
          "124136.421000",
          "124139.421000",
          "124141.921000",
          "124144.421000",
          "124146.921000",
          "124149.421000",
          "124151.921000",
          "124154.921000",
          "124157.421000",
          "124159.921000",
          "124202.421000",
          "124205.421000",
          "124207.921000",
          "124210.421000",
          "124212.921000",
          "124215.421000",
          "124218.421000",
          "124220.921000",
          "124223.421000",
          "124225.921000",
          "124228.421000",
          "124231.421000",
          "124233.921000",
          "124236.421000",
          "124238.921000",
          "124241.421000",
          "124244.421000",
          "124246.921000",
          "124249.421000",
          "124251.921000",
          "124254.421000",
          "124256.921000",
          "124259.921000",
          "124302.421000",
          "124304.921000",
          "124307.421000",
          "124309.921000",
          "124312.921000",
          "124315.421000",
          "124317.921000",
          "124320.421000",
          "124323.421000",
          "124325.921000",
          "124328.421000",
          "124330.921000",
          "124333.421000",
          "124335.921000",
          "124338.921000",
          "124341.421000",
          "124343.921000",
          "124346.421000",
          "124349.421000",
          "124351.921000",
          "124354.421000",
          "124356.921000",
          "124359.421000",
          "124402.421000",
          "124404.921000",
          "124407.421000",
          "124409.921000",
          "124417.296000"
        ],
        "InstanceCreationTime": [
          "123749.921000",
          "123750.421000",
          "123750.921000",
          "123752.921000",
          "123755.421000",
          "123757.921000",
          "123800.921000",
          "123803.421000",
          "123805.921000",
          "123808.421000",
          "123811.421000",
          "123813.921000",
          "123816.421000",
          "123818.921000",
          "123821.421000",
          "123824.421000",
          "123826.921000",
          "123829.421000",
          "123831.921000",
          "123834.421000",
          "123837.421000",
          "123839.921000",
          "123842.421000",
          "123844.921000",
          "123847.421000",
          "123850.421000",
          "123852.921000",
          "123855.421000",
          "123857.921000",
          "123900.421000",
          "123903.421000",
          "123905.921000",
          "123908.421000",
          "123910.921000",
          "123913.421000",
          "123915.921000",
          "123918.921000",
          "123921.421000",
          "123923.921000",
          "123926.421000",
          "123928.921000",
          "123931.921000",
          "123934.421000",
          "123936.921000",
          "123939.421000",
          "123942.421000",
          "123944.921000",
          "123947.421000",
          "123949.921000",
          "123952.421000",
          "123955.421000",
          "123957.921000",
          "124000.421000",
          "124002.921000",
          "124005.421000",
          "124008.421000",
          "124010.921000",
          "124013.421000",
          "124015.921000",
          "124018.421000",
          "124021.421000",
          "124023.921000",
          "124026.421000",
          "124028.921000",
          "124031.421000",
          "124034.421000",
          "124036.921000",
          "124039.421000",
          "124041.921000",
          "124044.421000",
          "124047.421000",
          "124049.921000",
          "124052.421000",
          "124054.921000",
          "124057.421000",
          "124100.421000",
          "124102.921000",
          "124105.421000",
          "124107.921000",
          "124110.421000",
          "124113.421000",
          "124115.921000",
          "124118.421000",
          "124120.921000",
          "124123.421000",
          "124125.921000",
          "124128.921000",
          "124131.421000",
          "124133.921000",
          "124136.421000",
          "124139.421000",
          "124141.921000",
          "124144.421000",
          "124146.921000",
          "124149.421000",
          "124151.921000",
          "124154.921000",
          "124157.421000",
          "124159.921000",
          "124202.421000",
          "124205.421000",
          "124207.921000",
          "124210.421000",
          "124212.921000",
          "124215.421000",
          "124218.421000",
          "124220.921000",
          "124223.421000",
          "124225.921000",
          "124228.421000",
          "124231.421000",
          "124233.921000",
          "124236.421000",
          "124238.921000",
          "124241.421000",
          "124244.421000",
          "124246.921000",
          "124249.421000",
          "124251.921000",
          "124254.421000",
          "124256.921000",
          "124259.921000",
          "124302.421000",
          "124304.921000",
          "124307.421000",
          "124309.921000",
          "124312.921000",
          "124315.421000",
          "124317.921000",
          "124320.421000",
          "124323.421000",
          "124325.921000",
          "124328.421000",
          "124330.921000",
          "124333.421000",
          "124335.921000",
          "124338.921000",
          "124341.421000",
          "124343.921000",
          "124346.421000",
          "124349.421000",
          "124351.921000",
          "124354.421000",
          "124356.921000",
          "124359.421000",
          "124402.421000",
          "124404.921000",
          "124407.421000",
          "124409.921000",
          "124417.296000"
        ],
        "InstanceNumber": [
          1,
          2,
          3,
          4,
          5,
          6,
          7,
          8,
          9,
          10,
          11,
          12,
          13,
          14,
          15,
          16,
          17,
          18,
          19,
          20,
          21,
          22,
          23,
          24,
          25,
          26,
          27,
          28,
          29,
          30,
          31,
          32,
          33,
          34,
          35,
          36,
          37,
          38,
          39,
          40,
          41,
          42,
          43,
          44,
          45,
          46,
          47,
          48,
          49,
          50,
          51,
          52,
          53,
          54,
          55,
          56,
          57,
          58,
          59,
          60,
          61,
          62,
          63,
          64,
          65,
          66,
          67,
          68,
          69,
          70,
          71,
          72,
          73,
          74,
          75,
          76,
          77,
          78,
          79,
          80,
          81,
          82,
          83,
          84,
          85,
          86,
          87,
          88,
          89,
          90,
          91,
          92,
          93,
          94,
          95,
          96,
          97,
          98,
          99,
          100,
          101,
          102,
          103,
          104,
          105,
          106,
          107,
          108,
          109,
          110,
          111,
          112,
          113,
          114,
          115,
          116,
          117,
          118,
          119,
          120,
          121,
          122,
          123,
          124,
          125,
          126,
          127,
          128,
          129,
          130,
          131,
          132,
          133,
          134,
          135,
          136,
          137,
          138,
          139,
          140,
          141,
          142,
          143,
          144,
          145,
          146,
          147,
          148,
          149,
          150
        ],
        "WindowCenter": [
          895.0,
          894.0,
          895.0,
          895.0,
          895.0,
          897.0,
          897.0,
          895.0,
          896.0,
          895.0,
          894.0,
          893.0,
          894.0,
          894.0,
          894.0,
          894.0,
          897.0,
          898.0,
          896.0,
          895.0,
          894.0,
          894.0,
          894.0,
          895.0,
          894.0,
          895.0,
          894.0,
          895.0,
          896.0,
          895.0,
          894.0,
          895.0,
          895.0,
          895.0,
          895.0,
          896.0,
          897.0,
          897.0,
          896.0,
          896.0,
          895.0,
          894.0,
          895.0,
          896.0,
          898.0,
          897.0,
          895.0,
          894.0,
          894.0,
          893.0,
          893.0,
          895.0,
          895.0,
          895.0,
          895.0,
          895.0,
          895.0,
          895.0,
          895.0,
          894.0,
          895.0,
          895.0,
          894.0,
          895.0,
          898.0,
          900.0,
          898.0,
          896.0,
          896.0,
          895.0,
          895.0,
          895.0,
          895.0,
          895.0,
          895.0,
          895.0,
          896.0,
          896.0,
          895.0,
          895.0,
          894.0,
          894.0,
          895.0,
          895.0,
          895.0,
          895.0,
          896.0,
          897.0,
          896.0,
          896.0,
          896.0,
          895.0,
          894.0,
          894.0,
          894.0,
          893.0,
          893.0,
          893.0,
          894.0,
          895.0,
          897.0,
          896.0,
          895.0,
          895.0,
          895.0,
          895.0,
          895.0,
          896.0,
          896.0,
          896.0,
          895.0,
          895.0,
          894.0,
          893.0,
          894.0,
          896.0,
          896.0,
          895.0,
          895.0,
          895.0,
          896.0,
          896.0,
          896.0,
          897.0,
          897.0,
          896.0,
          895.0,
          894.0,
          895.0,
          896.0,
          897.0,
          895.0,
          895.0,
          895.0,
          894.0,
          894.0,
          895.0,
          895.0,
          896.0,
          896.0,
          896.0,
          897.0,
          897.0,
          897.0,
          896.0,
          895.0,
          894.0,
          895.0,
          896.0,
          896.0
        ],
        "WindowWidth": [
          2081.0,
          2077.0,
          2081.0,
          2082.0,
          2084.0,
          2090.0,
          2088.0,
          2083.0,
          2085.0,
          2080.0,
          2076.0,
          2075.0,
          2078.0,
          2079.0,
          2080.0,
          2080.0,
          2090.0,
          2092.0,
          2084.0,
          2081.0,
          2079.0,
          2076.0,
          2080.0,
          2079.0,
          2079.0,
          2081.0,
          2079.0,
          2082.0,
          2086.0,
          2082.0,
          2079.0,
          2080.0,
          2083.0,
          2081.0,
          2083.0,
          2087.0,
          2089.0,
          2088.0,
          2087.0,
          2083.0,
          2082.0,
          2080.0,
          2082.0,
          2086.0,
          2093.0,
          2087.0,
          2082.0,
          2080.0,
          2076.0,
          2075.0,
          2076.0,
          2082.0,
          2082.0,
          2085.0,
          2083.0,
          2083.0,
          2083.0,
          2083.0,
          2082.0,
          2080.0,
          2081.0,
          2081.0,
          2080.0,
          2082.0,
          2095.0,
          2098.0,
          2090.0,
          2085.0,
          2086.0,
          2083.0,
          2081.0,
          2078.0,
          2082.0,
          2081.0,
          2083.0,
          2083.0,
          2085.0,
          2084.0,
          2082.0,
          2079.0,
          2077.0,
          2077.0,
          2081.0,
          2082.0,
          2082.0,
          2083.0,
          2088.0,
          2089.0,
          2086.0,
          2083.0,
          2082.0,
          2082.0,
          2079.0,
          2078.0,
          2079.0,
          2075.0,
          2076.0,
          2076.0,
          2079.0,
          2084.0,
          2087.0,
          2084.0,
          2084.0,
          2081.0,
          2082.0,
          2084.0,
          2084.0,
          2089.0,
          2088.0,
          2085.0,
          2082.0,
          2081.0,
          2078.0,
          2075.0,
          2079.0,
          2085.0,
          2085.0,
          2081.0,
          2081.0,
          2082.0,
          2085.0,
          2085.0,
          2088.0,
          2091.0,
          2089.0,
          2085.0,
          2081.0,
          2081.0,
          2085.0,
          2088.0,
          2089.0,
          2084.0,
          2083.0,
          2080.0,
          2078.0,
          2079.0,
          2082.0,
          2083.0,
          2084.0,
          2087.0,
          2087.0,
          2087.0,
          2090.0,
          2088.0,
          2087.0,
          2080.0,
          2077.0,
          2081.0,
          2086.0,
          2085.0
        ]
      },
      "slices": {}
    }
  },
  "dummy_trs": 0,
  "dvars_nstd": 68.79000880087247,
  "dvars_std": 1.043015927516778,
  "dvars_vstd": 1.0085417087919464,
  "efc": 0.560208105405869,
  "fber": 387.2450866699219,
  "fd_mean": 0.061034262243401534,
  "fd_num": 4,
  "fd_perc": 2.6666666666666665,
  "fwhm_avg": 3.0412181083082346,
  "fwhm_x": 2.9706006460516376,
  "fwhm_y": 2.8473785155486326,
  "fwhm_z": 3.305675163324433,
  "gcor": 0.00264557,
  "gsr_x": -0.008655320852994919,
  "gsr_y": 0.05465887859463692,
  "provenance": {
    "md5sum": "71bdb5ae5c249dd3f5812c4f3b27eb8d",
    "settings": {
      "fd_thres": 0.2,
      "testing": false
    },
    "software": "mriqc",
    "version": "22.0.6",
    "webapi_port": null,
    "webapi_url": "https://mriqc.nimh.nih.gov/api/v1"
  },
  "size_t": 150,
  "size_x": 188,
  "size_y": 188,
  "size_z": 46,
  "snr": 2.082490780922656,
  "spacing_tr": 2.5999999046325684,
  "spacing_x": 1.0957447290420532,
  "spacing_y": 1.0957447290420532,
  "spacing_z": 1.099999189376831,
  "summary_bg_k": 58.881422927911906,
  "summary_bg_mad": 24.640847287973088,
  "summary_bg_mean": 86.48123168945312,
  "summary_bg_median": 49.073333740234375,
  "summary_bg_n": 1043093.0,
  "summary_bg_p05": 30.80000114440918,
