{
  "aor": 0.0007511999999999999,
  "aqi": 0.012636356199999999,
  "bids_meta": {
    "AcquisitionMatrixPE": 188,
    "AcquisitionNumber": 1,
    "AcquisitionTime": "12:52:50.197500",
    "BandwidthPerPixelPhaseEncode": 19.46,
    "BaseResolution": 188,
    "CogAtlasID": "TODO",
    "ConversionSoftware": "dcm2niix",
    "ConversionSoftwareVersion": "v1.0.20180606 GCC4.8.5",
    "DelayTime": 1.2,
    "DerivedVendorReportedEchoSpacing": 0.000820013,
    "DeviceSerialNumber": "18930",
    "DwellTime": 1.9e-06,
    "EchoTime": 0.02,
    "EffectiveEchoSpacing": 0.000273338,
    "FlipAngle": 80,
    "ImageComments": "Unaliased_MB2_PE2",
    "ImageOrientationPatientDICOM": [
      0.997181,
      0.0711839,
      -0.0237294,
      -0.0291347,
      0.0758841,
      -0.996691
    ],
    "ImageType": [
      "ORIGINAL",
      "PRIMARY",
      "M",
      "MB",
      "ND",
      "MOSAIC"
    ],
    "InPlanePhaseEncodingDirectionDICOM": "COL",
    "InstitutionAddress": "Oxfordlaan_55_Maastricht_753AAF_Limburg_NL_6229_EV",
    "InstitutionName": "Scannexus",
    "InstitutionalDepartmentName": "MRI_7T",
    "MRAcquisitionType": "2D",
    "MagneticFieldStrength": 6.98,
    "Manufacturer": "Siemens",
    "ManufacturersModelName": "Investigational_Device_7T",
    "Modality": "MR",
    "MultibandAccelerationFactor": 2,
    "ParallelReductionFactorInPlane": 3,
    "PartialFourier": 0.75,
    "PatientPosition": "HFS",
    "PercentPhaseFOV": 100,
    "PhaseEncodingDirection": "j",
    "PhaseEncodingSteps": 141,
    "PhaseResolution": 1,
    "PixelBandwidth": 1400,
    "ProcedureStepDescription": "FeDem_Faruk",
    "ProtocolName": "cmrr_mbep2d_bold_AP_run4",
    "PulseSequenceDetails": "%CustomerSeq%_cmrr_mbep2d_bold",
    "ReceiveCoilName": "32Ch_Head_7T",
    "ReconMatrixPE": 188,
    "RepetitionTime": 2.6,
    "SAR": 0.0987605,
    "ScanOptions": "PFP_FS",
    "ScanningSequence": "EP",
    "SequenceName": "epfid2d1_188",
    "SequenceVariant": "SK_SS",
    "SeriesDescription": "cmrr_mbep2d_bold_AP_run4",
    "SeriesNumber": 19,
    "ShimSetting": [
      124,
      -13,
      480,
      316,
      30,
      25,
      -149,
      154
    ],
    "SliceThickness": 1.1,
    "SliceTiming": [
      0,
      0.735,
      0.0625,
      0.795,
      0.1225,
      0.8575,
      0.185,
      0.9175,
      0.245,
      0.98,
      0.3075,
      1.04,
      0.3675,
      1.1,
      0.43,
      1.1625,
      0.49,
      1.2225,
      0.55,
      1.285,
      0.6125,
      1.345,
      0.6725,
      0,
      0.735,
      0.0625,
      0.795,
      0.1225,
      0.8575,
      0.185,
      0.9175,
      0.245,
      0.98,
      0.3075,
      1.04,
      0.3675,
      1.1,
      0.43,
      1.1625,
      0.49,
      1.2225,
      0.55,
      1.285,
      0.6125,
      1.345,
      0.6725
    ],
    "SoftwareVersions": "syngo_MR_B17",
    "SpacingBetweenSlices": 1.1,
    "StationName": "MRC18930",
    "TaskName": "auditory",
    "TotalReadoutTime": 0.0511141,
    "TxRefAmp": 240,
    "dataset": "ds001942",
    "dcmmeta_affine": [
      [
        -1.0926557779312134,
        -0.03192422166466713,
        0.07606232911348343,
        100.94556427001953
      ],
      [
        -0.07799933105707169,
        0.08314957469701767,
        -1.0940289497375488,
        45.8215217590332
      ],
      [
        -0.026001356542110443,
        1.0921188592910767,
        0.08551841974258423,
        -111.3921890258789
      ],
      [
        0.0,
        0.0,
        0.0,
        1.0
      ]
    ],
    "dcmmeta_reorient_transform": [
      [
        0.0,
        -1.0,
        0.0,
        187.0
      ],
      [
        1.0,
        0.0,
        0.0,
        0.0
      ],
      [
        0.0,
        0.0,
        1.0,
        0.0
      ],
      [
        0.0,
        0.0,
        0.0,
        1.0
      ]
    ],
    "dcmmeta_shape": [
      188,
      188,
      46,
      150
    ],
    "dcmmeta_slice_dim": 2,
    "dcmmeta_version": 0.6,
    "global": {
      "const": {
        "AcquisitionMatrix": [
          188,
          0,
          0,
          188
        ],
        "AngioFlag": "N",
        "BitsAllocated": 16,
        "BitsStored": 12,
        "Columns": 1316,
        "EchoNumbers": 1,
        "EchoTime": 20.0,
        "EchoTrainLength": 1,
        "FlipAngle": 80.0,
        "HighBit": 11,
        "ImageOrientationPatient": [
          0.99718091373392,
          0.07118385490261,
          -0.0237293928702,
          -0.0291347245826,
          0.07588407592936,
          -0.9966909123915
        ],
        "ImagePositionPatient": [
          -693.22830466268,
          -152.25847882604,
          723.45380250763
        ],
        "ImageType": [
          "ORIGINAL",
          "PRIMARY",
          "M",
          "MB",
          "ND",
          "MOSAIC"
        ],
        "ImagedNucleus": "1H",
        "ImagingFrequency": 297.205593,
        "InPlanePhaseEncodingDirection": "COL",
        "LargestImagePixelValue": 4095,
        "MRAcquisitionType": "2D",
        "MagneticFieldStrength": 6.98,
        "Manufacturer": "SIEMENS",
        "ManufacturerModelName": "Investigational_Device_7T",
        "Modality": "MR",
        "NumberOfAverages": 1.0,
        "NumberOfPhaseEncodingSteps": 141,
        "PercentPhaseFieldOfView": 100.0,
        "PercentSampling": 100.0,
        "PerformedProcedureStepStartTime": "115418.265000",
        "PhotometricInterpretation": "MONOCHROME2",
        "PixelBandwidth": 1400.0,
        "PixelRepresentation": 0,
        "PixelSpacing": [
          1.0957447290421,
          1.0957447290421
        ],
        "ProtocolName": "cmrr_mbep2d_bold_AP_run4",
        "RepetitionTime": 2600.0,
        "Rows": 1316,
        "SAR": 0.09876050946957,
        "SamplesPerPixel": 1,
        "ScanOptions": [
          "PFP",
          "FS"
        ],
        "ScanningSequence": "EP",
        "SequenceName": "epfid2d1_188",
        "SequenceVariant": [
          "SK",
          "SS"
        ],
        "SeriesDescription": "cmrr_mbep2d_bold_AP_run4",
        "SeriesNumber": 19,
        "SeriesTime": "125259.546000",
        "SliceLocation": -47.252764297263,
        "SliceThickness": 1.1000000238419,
        "SmallestImagePixelValue": 0,
        "SoftwareVersions": "syngo MR B17",
        "SpacingBetweenSlices": 1.099999210794,
        "SpecificCharacterSet": "ISO_IR 100",
        "StudyID": "1",
        "StudyTime": "115418.140000",
        "TransmitCoilName": "32Ch_Head_7T",
        "VariableFlipAngleFlag": "N",
        "WindowCenterWidthExplanation": "Algo1",
        "dBdt": 0.0
      },
      "slices": {}
    },
    "modality": "bold",
    "run_id": 4,
    "session_id": "SES02",
    "subject_id": "S11",
    "task_id": "auditory",
    "time": {
      "samples": {
        "AcquisitionNumber": [
          1,
          2,
          3,
          4,
          5,
          6,
          7,
          8,
          9,
          10,
          11,
          12,
          13,
          14,
          15,
          16,
          17,
          18,
          19,
          20,
          21,
          22,
          23,
          24,
          25,
          26,
          27,
          28,
          29,
          30,
          31,
          32,
          33,
          34,
          35,
          36,
          37,
          38,
          39,
          40,
          41,
          42,
          43,
          44,
          45,
          46,
          47,
          48,
          49,
          50,
          51,
          52,
          53,
          54,
          55,
          56,
          57,
          58,
          59,
          60,
          61,
          62,
          63,
          64,
          65,
          66,
          67,
          68,
          69,
          70,
          71,
          72,
          73,
          74,
          75,
          76,
          77,
          78,
          79,
          80,
          81,
          82,
          83,
          84,
          85,
          86,
          87,
          88,
          89,
          90,
          91,
          92,
          93,
          94,
          95,
          96,
          97,
          98,
          99,
          100,
          101,
          102,
          103,
          104,
          105,
          106,
          107,
          108,
          109,
          110,
          111,
          112,
          113,
          114,
          115,
          116,
          117,
          118,
          119,
          120,
          121,
          122,
          123,
          124,
          125,
          126,
          127,
          128,
          129,
          130,
          131,
          132,
          133,
          134,
          135,
          136,
          137,
          138,
          139,
          140,
          141,
          142,
          143,
          144,
          145,
          146,
          147,
          148,
          149,
          150
        ],
        "AcquisitionTime": [
          "125250.197500",
          "125252.810000",
          "125255.420000",
          "125258.030000",
          "125300.640000",
          "125303.250000",
          "125305.862500",
          "125308.472500",
          "125311.082500",
          "125313.692500",
          "125316.302500",
          "125318.912500",
          "125321.525000",
          "125324.135000",
          "125326.745000",
          "125329.355000",
          "125331.965000",
          "125334.575000",
          "125337.187500",
          "125339.797500",
          "125342.407500",
          "125345.017500",
          "125347.627500",
          "125350.240000",
          "125352.850000",
          "125355.460000",
          "125358.070000",
          "125400.680000",
          "125403.290000",
          "125405.902500",
          "125408.512500",
          "125411.122500",
          "125413.732500",
          "125416.342500",
          "125418.952500",
          "125421.565000",
          "125424.175000",
          "125426.785000",
          "125429.395000",
          "125432.005000",
          "125434.617500",
          "125437.227500",
          "125439.837500",
          "125442.447500",
          "125445.057500",
          "125447.667500",
          "125450.280000",
          "125452.890000",
          "125455.500000",
          "125458.110000",
          "125500.720000",
          "125503.332500",
          "125505.942500",
          "125508.552500",
          "125511.162500",
          "125513.772500",
          "125516.382500",
          "125518.995000",
          "125521.605000",
          "125524.215000",
          "125526.825000",
          "125529.435000",
          "125532.045000",
          "125534.657500",
          "125537.267500",
          "125539.877500",
          "125542.487500",
          "125545.097500",
          "125547.710000",
          "125550.320000",
          "125552.930000",
          "125555.540000",
          "125558.150000",
          "125600.760000",
          "125603.372500",
          "125605.982500",
          "125608.592500",
          "125611.202500",
          "125613.812500",
          "125616.422500",
          "125619.035000",
          "125621.645000",
          "125624.255000",
          "125626.865000",
          "125629.475000",
          "125632.087500",
          "125634.697500",
          "125637.307500",
          "125639.917500",
          "125642.527500",
          "125645.137500",
          "125647.750000",
          "125650.360000",
          "125652.970000",
          "125655.580000",
          "125658.190000",
          "125700.800000",
          "125703.412500",
          "125706.022500",
          "125708.632500",
          "125711.242500",
          "125713.852500",
          "125716.465000",
          "125719.075000",
          "125721.685000",
          "125724.295000",
          "125726.905000",
          "125729.515000",
          "125732.127500",
          "125734.737500",
          "125737.347500",
          "125739.957500",
          "125742.567500",
          "125745.177500",
          "125747.790000",
          "125750.400000",
          "125753.010000",
          "125755.620000",
          "125758.230000",
          "125800.842500",
          "125803.452500",
          "125806.062500",
          "125808.672500",
          "125811.282500",
          "125813.892500",
          "125816.505000",
          "125819.115000",
          "125821.725000",
          "125824.335000",
          "125826.945000",
          "125829.555000",
          "125832.167500",
          "125834.777500",
          "125837.387500",
          "125839.997500",
          "125842.607500",
          "125845.220000",
          "125847.830000",
          "125850.440000",
          "125853.050000",
          "125855.660000",
          "125858.270000",
          "125900.882500",
          "125903.492500",
          "125906.102500",
          "125908.712500",
          "125911.322500",
          "125913.932500",
          "125916.545000",
          "125919.155000"
        ],
        "ContentTime": [
          "125259.546000",
          "125259.562000",
          "125300.046000",
          "125302.546000",
          "125305.046000",
          "125307.546000",
          "125310.546000",
          "125313.046000",
          "125315.546000",
          "125318.046000",
          "125320.546000",
          "125323.546000",
          "125326.046000",
          "125328.546000",
          "125331.046000",
          "125333.546000",
          "125336.546000",
          "125339.046000",
          "125341.546000",
          "125344.046000",
          "125346.546000",
          "125349.546000",
          "125352.046000",
          "125354.546000",
          "125357.046000",
          "125359.546000",
          "125402.546000",
          "125405.046000",
          "125407.546000",
          "125410.046000",
          "125412.546000",
          "125415.546000",
          "125418.046000",
          "125420.546000",
          "125423.046000",
          "125425.546000",
          "125428.546000",
          "125431.046000",
          "125433.546000",
          "125436.046000",
          "125438.546000",
          "125441.546000",
          "125444.046000",
          "125446.546000",
          "125449.046000",
          "125451.546000",
          "125454.546000",
          "125457.046000",
          "125459.546000",
          "125502.046000",
          "125504.546000",
          "125507.546000",
          "125510.046000",
          "125512.546000",
          "125515.046000",
          "125517.546000",
          "125520.546000",
          "125523.046000",
          "125525.546000",
          "125528.046000",
          "125530.546000",
          "125533.546000",
          "125536.046000",
          "125538.546000",
          "125541.046000",
          "125543.546000",
          "125546.546000",
          "125549.046000",
          "125551.546000",
          "125554.046000",
          "125556.546000",
          "125559.546000",
          "125602.046000",
          "125604.546000",
          "125607.046000",
          "125609.546000",
          "125612.546000",
          "125615.046000",
          "125617.546000",
          "125620.046000",
          "125622.546000",
          "125625.546000",
          "125628.046000",
          "125630.546000",
          "125633.046000",
          "125635.546000",
          "125638.546000",
          "125641.046000",
          "125643.546000",
          "125646.046000",
          "125648.546000",
          "125651.546000",
          "125654.046000",
          "125656.546000",
          "125659.046000",
          "125701.546000",
          "125704.546000",
          "125707.046000",
          "125709.546000",
          "125712.046000",
          "125714.546000",
          "125717.546000",
          "125720.046000",
          "125722.546000",
          "125725.046000",
          "125727.546000",
          "125730.546000",
          "125733.046000",
          "125735.546000",
          "125738.046000",
          "125740.546000",
          "125743.546000",
          "125746.046000",
          "125748.546000",
          "125751.046000",
          "125753.546000",
          "125756.546000",
          "125759.046000",
          "125801.546000",
          "125804.046000",
          "125806.546000",
          "125809.546000",
          "125812.046000",
          "125814.546000",
          "125817.046000",
          "125819.546000",
          "125822.546000",
          "125825.046000",
          "125827.546000",
          "125830.046000",
          "125832.546000",
          "125835.546000",
          "125838.046000",
          "125840.546000",
          "125843.046000",
          "125845.546000",
          "125848.546000",
          "125851.046000",
          "125853.546000",
          "125856.046000",
          "125858.546000",
          "125901.546000",
          "125904.046000",
          "125906.546000",
          "125909.046000",
          "125911.546000",
          "125914.546000",
          "125917.046000",
          "125919.546000",
          "125926.921000"
        ],
        "InstanceCreationTime": [
          "125259.546000",
          "125259.562000",
          "125300.046000",
          "125302.546000",
          "125305.046000",
          "125307.546000",
          "125310.546000",
          "125313.046000",
          "125315.546000",
          "125318.046000",
          "125320.546000",
          "125323.546000",
          "125326.046000",
          "125328.546000",
          "125331.046000",
          "125333.546000",
          "125336.546000",
          "125339.046000",
          "125341.546000",
          "125344.046000",
          "125346.546000",
          "125349.546000",
          "125352.046000",
          "125354.546000",
          "125357.046000",
          "125359.546000",
          "125402.546000",
          "125405.046000",
          "125407.546000",
          "125410.046000",
          "125412.546000",
          "125415.546000",
          "125418.046000",
          "125420.546000",
          "125423.046000",
          "125425.546000",
          "125428.546000",
          "125431.046000",
          "125433.546000",
          "125436.046000",
          "125438.546000",
          "125441.546000",
          "125444.046000",
          "125446.546000",
          "125449.046000",
          "125451.546000",
          "125454.546000",
          "125457.046000",
          "125459.546000",
          "125502.046000",
          "125504.546000",
          "125507.546000",
          "125510.046000",
          "125512.546000",
          "125515.046000",
          "125517.546000",
          "125520.546000",
          "125523.046000",
          "125525.546000",
          "125528.046000",
          "125530.546000",
          "125533.546000",
          "125536.046000",
          "125538.546000",
          "125541.046000",
          "125543.546000",
          "125546.546000",
          "125549.046000",
          "125551.546000",
          "125554.046000",
          "125556.546000",
          "125559.546000",
          "125602.046000",
          "125604.546000",
          "125607.046000",
          "125609.546000",
          "125612.546000",
          "125615.046000",
          "125617.546000",
          "125620.046000",
          "125622.546000",
          "125625.546000",
          "125628.046000",
          "125630.546000",
          "125633.046000",
          "125635.546000",
          "125638.546000",
          "125641.046000",
          "125643.546000",
          "125646.046000",
          "125648.546000",
          "125651.546000",
          "125654.046000",
          "125656.546000",
          "125659.046000",
          "125701.546000",
          "125704.546000",
          "125707.046000",
          "125709.546000",
          "125712.046000",
          "125714.546000",
          "125717.546000",
          "125720.046000",
          "125722.546000",
          "125725.046000",
          "125727.546000",
          "125730.546000",
          "125733.046000",
          "125735.546000",
          "125738.046000",
          "125740.546000",
          "125743.546000",
          "125746.046000",
          "125748.546000",
          "125751.046000",
          "125753.546000",
          "125756.546000",
          "125759.046000",
          "125801.546000",
          "125804.046000",
          "125806.546000",
          "125809.546000",
          "125812.046000",
          "125814.546000",
          "125817.046000",
          "125819.546000",
          "125822.546000",
          "125825.046000",
          "125827.546000",
          "125830.046000",
          "125832.546000",
          "125835.546000",
          "125838.046000",
          "125840.546000",
          "125843.046000",
          "125845.546000",
          "125848.546000",
          "125851.046000",
          "125853.546000",
          "125856.046000",
          "125858.546000",
          "125901.546000",
          "125904.046000",
          "125906.546000",
          "125909.046000",
          "125911.546000",
          "125914.546000",
          "125917.046000",
          "125919.546000",
          "125926.921000"
        ],
        "InstanceNumber": [
          1,
          2,
          3,
          4,
          5,
          6,
          7,
          8,
          9,
          10,
          11,
          12,
          13,
          14,
          15,
          16,
          17,
          18,
          19,
          20,
          21,
          22,
          23,
          24,
          25,
          26,
          27,
          28,
          29,
          30,
          31,
          32,
          33,
          34,
          35,
          36,
          37,
          38,
          39,
          40,
          41,
          42,
          43,
          44,
          45,
          46,
          47,
          48,
          49,
          50,
          51,
          52,
          53,
          54,
          55,
          56,
          57,
          58,
          59,
          60,
          61,
          62,
          63,
          64,
          65,
          66,
          67,
          68,
          69,
          70,
          71,
          72,
          73,
          74,
          75,
          76,
          77,
          78,
          79,
          80,
          81,
          82,
          83,
          84,
          85,
          86,
          87,
          88,
          89,
          90,
          91,
          92,
          93,
          94,
          95,
          96,
          97,
          98,
          99,
          100,
          101,
          102,
          103,
          104,
          105,
          106,
          107,
          108,
          109,
          110,
          111,
          112,
          113,
          114,
          115,
          116,
          117,
          118,
          119,
          120,
          121,
          122,
          123,
          124,
          125,
          126,
          127,
          128,
          129,
          130,
          131,
          132,
          133,
          134,
          135,
          136,
          137,
          138,
          139,
          140,
          141,
          142,
          143,
          144,
          145,
          146,
          147,
          148,
          149,
          150
        ],
        "WindowCenter": [
          897.0,
          895.0,
          895.0,
          894.0,
          894.0,
          895.0,
          896.0,
          895.0,
          895.0,
          895.0,
          896.0,
          897.0,
          899.0,
          899.0,
          898.0,
          896.0,
          895.0,
          895.0,
          895.0,
          894.0,
          893.0,
          894.0,
          896.0,
          895.0,
          894.0,
          895.0,
          896.0,
          895.0,
          895.0,
          895.0,
          895.0,
          895.0,
          895.0,
          896.0,
          897.0,
          898.0,
          898.0,
          899.0,
          899.0,
          898.0,
          898.0,
          897.0,
          898.0,
          897.0,
          897.0,
          898.0,
          899.0,
          898.0,
          896.0,
          896.0,
          896.0,
          895.0,
          895.0,
          897.0,
          897.0,
          897.0,
          896.0,
          895.0,
          895.0,
          896.0,
          896.0,
          896.0,
          896.0,
          898.0,
          897.0,
          897.0,
          896.0,
          896.0,
          896.0,
          896.0,
          899.0,
          900.0,
          898.0,
          897.0,
          897.0,
          897.0,
          897.0,
          897.0,
          899.0,
          900.0,
          900.0,
          900.0,
          900.0,
          899.0,
          897.0,
          896.0,
          896.0,
          896.0,
          898.0,
          898.0,
          897.0,
          897.0,
          897.0,
          897.0,
          897.0,
          897.0,
          897.0,
          897.0,
          897.0,
          898.0,
          900.0,
          902.0,
          899.0,
          898.0,
          896.0,
          896.0,
          896.0,
          899.0,
          901.0,
          899.0,
          897.0,
          896.0,
          895.0,
          895.0,
          894.0,
          895.0,
          897.0,
          896.0,
          897.0,
          898.0,
          896.0,
          895.0,
          895.0,
          895.0,
          896.0,
          897.0,
          896.0,
          896.0,
          897.0,
          896.0,
          895.0,
          895.0,
          895.0,
          897.0,
          896.0,
          895.0,
          896.0,
          897.0,
          898.0,
          898.0,
          897.0,
          896.0,
          896.0,
          897.0,
          899.0,
          898.0,
          897.0,
          897.0,
          899.0,
          899.0
        ],
        "WindowWidth": [
          2088.0,
          2083.0,
          2082.0,
          2080.0,
          2081.0,
          2086.0,
          2088.0,
          2083.0,
          2082.0,
          2086.0,
          2087.0,
          2092.0,
          2098.0,
          2096.0,
          2091.0,
          2086.0,
          2083.0,
          2083.0,
          2082.0,
          2078.0,
          2076.0,
          2081.0,
          2084.0,
          2080.0,
          2079.0,
          2086.0,
          2087.0,
          2083.0,
          2083.0,
          2082.0,
          2082.0,
          2081.0,
          2082.0,
          2086.0,
          2089.0,
          2092.0,
          2095.0,
          2097.0,
          2096.0,
          2095.0,
          2092.0,
          2091.0,
          2092.0,
          2091.0,
          2091.0,
          2095.0,
          2097.0,
          2094.0,
          2085.0,
          2084.0,
          2085.0,
          2081.0,
          2084.0,
          2089.0,
          2090.0,
          2088.0,
          2084.0,
          2082.0,
          2081.0,
          2087.0,
          2088.0,
          2084.0,
          2086.0,
          2092.0,
          2090.0,
          2087.0,
          2085.0,
          2084.0,
          2085.0,
          2089.0,
          2100.0,
          2099.0,
          2092.0,
          2089.0,
          2089.0,
          2088.0,
          2089.0,
          2089.0,
          2096.0,
          2099.0,
          2099.0,
          2099.0,
          2099.0,
          2094.0,
          2088.0,
          2086.0,
          2087.0,
          2087.0,
          2094.0,
          2093.0,
          2089.0,
          2087.0,
          2089.0,
          2090.0,
          2091.0,
          2089.0,
          2088.0,
          2089.0,
          2090.0,
          2093.0,
          2102.0,
          2105.0,
          2095.0,
          2090.0,
          2087.0,
          2088.0,
          2088.0,
          2099.0,
          2102.0,
          2094.0,
          2089.0,
          2085.0,
          2082.0,
          2080.0,
          2078.0,
          2083.0,
          2087.0,
          2087.0,
          2090.0,
          2093.0,
          2086.0,
          2081.0,
          2082.0,
          2085.0,
          2088.0,
          2089.0,
          2087.0,
          2087.0,
          2087.0,
          2084.0,
          2081.0,
          2082.0,
          2082.0,
          2088.0,
          2085.0,
          2083.0,
          2088.0,
          2090.0,
          2092.0,
          2092.0,
          2090.0,
          2086.0,
          2086.0,
          2090.0,
          2098.0,
          2093.0,
          2088.0,
          2091.0,
          2096.0,
          2095.0
        ]
      },
      "slices": {}
    }
  },
  "dummy_trs": 0,
  "dvars_nstd": 69.63146952208054,
  "dvars_std": 1.0588856986577182,
  "dvars_vstd": 1.020427580201342,
  "efc": 0.5604456649352989,
  "fber": 372.23114013671875,
  "fd_mean": 0.06844053305008826,
  "fd_num": 2,
  "fd_perc": 1.3333333333333333,
  "fwhm_avg": 3.0496591706465157,
  "fwhm_x": 2.989163363681849,
  "fwhm_y": 2.8630117187445774,
  "fwhm_z": 3.2968024295131206,
  "gcor": 0.00496548,
  "gsr_x": -0.009421102702617645,
  "gsr_y": 0.05582663416862488,
  "provenance": {
    "md5sum": "2e74973ca2762a194e8844d7ecc68edd",
    "settings": {
      "fd_thres": 0.2,
      "testing": false
    },
    "software": "mriqc",
    "version": "22.0.6",
    "webapi_port": null,
    "webapi_url": "https://mriqc.nimh.nih.gov/api/v1"
  },
  "size_t": 150,
  "size_x": 188,
  "size_y": 188,
  "size_z": 46,
  "snr": 2.0836457117247122,
  "spacing_tr": 2.5999999046325684,
  "spacing_x": 1.0957447290420532,
  "spacing_y": 1.0957447290420532,
  "spacing_z": 1.099999189376831,
  "summary_bg_k": 56.42515740539639,
  "summary_bg_mad": 26.01472474051589,
  "summary_bg_mean": 87.69276428222656,
  "summary_bg_median": 50.14666748046875,
  "summary_bg_n": 1044913.0,
  "summary_bg_p05": 30.753334045410156,
