{
  "aor": 0.0005455333333333334,
  "aqi": 0.013221296,
  "bids_meta": {
    "AcquisitionMatrixPE": 188,
    "AcquisitionNumber": 1,
    "AcquisitionTime": "13:48:55.212500",
    "BandwidthPerPixelPhaseEncode": 19.46,
    "BaseResolution": 188,
    "CogAtlasID": "TODO",
    "ConversionSoftware": "dcm2niix",
    "ConversionSoftwareVersion": "v1.0.20180606 GCC4.8.5",
    "DelayTime": 1.2,
    "DerivedVendorReportedEchoSpacing": 0.000820013,
    "DeviceSerialNumber": "18930",
    "DwellTime": 1.9e-06,
    "EchoTime": 0.02,
    "EffectiveEchoSpacing": 0.000273338,
    "FlipAngle": 80,
    "ImageComments": "Unaliased_MB2_PE2",
    "ImageOrientationPatientDICOM": [
      0.997181,
      0.0711839,
      -0.0237294,
      -0.0291347,
      0.0758841,
      -0.996691
    ],
    "ImageType": [
      "ORIGINAL",
      "PRIMARY",
      "M",
      "MB",
      "ND",
      "MOSAIC"
    ],
    "InPlanePhaseEncodingDirectionDICOM": "COL",
    "InstitutionAddress": "Oxfordlaan_55_Maastricht_753AAF_Limburg_NL_6229_EV",
    "InstitutionName": "Scannexus",
    "InstitutionalDepartmentName": "MRI_7T",
    "MRAcquisitionType": "2D",
    "MagneticFieldStrength": 6.98,
    "Manufacturer": "Siemens",
    "ManufacturersModelName": "Investigational_Device_7T",
    "Modality": "MR",
    "MultibandAccelerationFactor": 2,
    "ParallelReductionFactorInPlane": 3,
    "PartialFourier": 0.75,
    "PatientPosition": "HFS",
    "PercentPhaseFOV": 100,
    "PhaseEncodingDirection": "j",
    "PhaseEncodingSteps": 141,
    "PhaseResolution": 1,
    "PixelBandwidth": 1400,
    "ProcedureStepDescription": "FeDem_Faruk",
    "ProtocolName": "cmrr_mbep2d_bold_AP_run11",
    "PulseSequenceDetails": "%CustomerSeq%_cmrr_mbep2d_bold",
    "ReceiveCoilName": "32Ch_Head_7T",
    "ReconMatrixPE": 188,
    "RepetitionTime": 2.6,
    "SAR": 0.0987162,
    "ScanOptions": "PFP_FS",
    "ScanningSequence": "EP",
    "SequenceName": "epfid2d1_188",
    "SequenceVariant": "SK_SS",
    "SeriesDescription": "cmrr_mbep2d_bold_AP_run11",
    "SeriesNumber": 28,
    "ShimSetting": [
      124,
      -13,
      480,
      316,
      30,
      25,
      -149,
      154
    ],
    "SliceThickness": 1.1,
    "SliceTiming": [
      0,
      0.735,
      0.0625,
      0.795,
      0.1225,
      0.8575,
      0.185,
      0.9175,
      0.245,
      0.98,
      0.3075,
      1.04,
      0.3675,
      1.1,
      0.43,
      1.1625,
      0.49,
      1.2225,
      0.55,
      1.285,
      0.6125,
      1.345,
      0.6725,
      0,
      0.735,
      0.0625,
      0.795,
      0.1225,
      0.8575,
      0.185,
      0.9175,
      0.245,
      0.98,
      0.3075,
      1.04,
      0.3675,
      1.1,
      0.43,
      1.1625,
      0.49,
      1.2225,
      0.55,
      1.285,
      0.6125,
      1.345,
      0.6725
    ],
    "SoftwareVersions": "syngo_MR_B17",
    "SpacingBetweenSlices": 1.1,
    "StationName": "MRC18930",
    "TaskName": "auditory",
    "TotalReadoutTime": 0.0511141,
    "TxRefAmp": 240,
    "dataset": "ds001942",
    "dcmmeta_affine": [
      [
        -1.0926557779312134,
        -0.03192422166466713,
        0.07606232911348343,
        100.94556427001953
      ],
      [
        -0.07799933105707169,
        0.08314957469701767,
        -1.0940289497375488,
        45.8215217590332
      ],
      [
        -0.026001356542110443,
        1.0921188592910767,
        0.08551841974258423,
        -111.3921890258789
      ],
      [
        0.0,
        0.0,
        0.0,
        1.0
      ]
    ],
    "dcmmeta_reorient_transform": [
      [
        0.0,
        -1.0,
        0.0,
        187.0
      ],
      [
        1.0,
        0.0,
        0.0,
        0.0
      ],
      [
        0.0,
        0.0,
        1.0,
        0.0
      ],
      [
        0.0,
        0.0,
        0.0,
        1.0
      ]
    ],
    "dcmmeta_shape": [
      188,
      188,
      46,
      150
    ],
    "dcmmeta_slice_dim": 2,
    "dcmmeta_version": 0.6,
    "global": {
      "const": {
        "AcquisitionMatrix": [
          188,
          0,
          0,
          188
        ],
        "AngioFlag": "N",
        "BitsAllocated": 16,
        "BitsStored": 12,
        "Columns": 1316,
        "EchoNumbers": 1,
        "EchoTime": 20.0,
        "EchoTrainLength": 1,
        "FlipAngle": 80.0,
        "HighBit": 11,
        "ImageOrientationPatient": [
          0.99718091373392,
          0.07118385490261,
          -0.0237293928702,
          -0.0291347245826,
          0.07588407592936,
          -0.9966909123915
        ],
        "ImagePositionPatient": [
          -693.22830466268,
          -152.25847882604,
          723.45380250763
        ],
        "ImageType": [
          "ORIGINAL",
          "PRIMARY",
          "M",
          "MB",
          "ND",
          "MOSAIC"
        ],
        "ImagedNucleus": "1H",
        "ImagingFrequency": 297.205608,
        "InPlanePhaseEncodingDirection": "COL",
        "LargestImagePixelValue": 4095,
        "MRAcquisitionType": "2D",
        "MagneticFieldStrength": 6.98,
        "Manufacturer": "SIEMENS",
        "ManufacturerModelName": "Investigational_Device_7T",
        "Modality": "MR",
        "NumberOfAverages": 1.0,
        "NumberOfPhaseEncodingSteps": 141,
        "PercentPhaseFieldOfView": 100.0,
        "PercentSampling": 100.0,
        "PerformedProcedureStepStartTime": "115418.265000",
        "PhotometricInterpretation": "MONOCHROME2",
        "PixelBandwidth": 1400.0,
        "PixelRepresentation": 0,
        "PixelSpacing": [
          1.0957447290421,
          1.0957447290421
        ],
        "ProtocolName": "cmrr_mbep2d_bold_AP_run11",
        "RepetitionTime": 2600.0,
        "Rows": 1316,
        "SAR": 0.09871623306678,
        "SamplesPerPixel": 1,
        "ScanOptions": [
          "PFP",
          "FS"
        ],
        "ScanningSequence": "EP",
        "SequenceName": "epfid2d1_188",
        "SequenceVariant": [
          "SK",
          "SS"
        ],
        "SeriesDescription": "cmrr_mbep2d_bold_AP_run11",
        "SeriesNumber": 28,
        "SeriesTime": "134904.953000",
        "SliceLocation": -47.252764297263,
        "SliceThickness": 1.1000000238419,
        "SmallestImagePixelValue": 0,
        "SoftwareVersions": "syngo MR B17",
        "SpacingBetweenSlices": 1.099999210794,
        "SpecificCharacterSet": "ISO_IR 100",
        "StudyID": "1",
        "StudyTime": "115418.140000",
        "TransmitCoilName": "32Ch_Head_7T",
        "VariableFlipAngleFlag": "N",
        "WindowCenterWidthExplanation": "Algo1",
        "dBdt": 0.0
      },
      "slices": {}
    },
    "modality": "bold",
    "run_id": 11,
    "session_id": "SES02",
    "subject_id": "S11",
    "task_id": "auditory",
    "time": {
      "samples": {
        "AcquisitionNumber": [
          1,
          2,
          3,
          4,
          5,
          6,
          7,
          8,
          9,
          10,
          11,
          12,
          13,
          14,
          15,
          16,
          17,
          18,
          19,
          20,
          21,
          22,
          23,
          24,
          25,
          26,
          27,
          28,
          29,
          30,
          31,
          32,
          33,
          34,
          35,
          36,
          37,
          38,
          39,
          40,
          41,
          42,
          43,
          44,
          45,
          46,
          47,
          48,
          49,
          50,
          51,
          52,
          53,
          54,
          55,
          56,
          57,
          58,
          59,
          60,
          61,
          62,
          63,
          64,
          65,
          66,
          67,
          68,
          69,
          70,
          71,
          72,
          73,
          74,
          75,
          76,
          77,
          78,
          79,
          80,
          81,
          82,
          83,
          84,
          85,
          86,
          87,
          88,
          89,
          90,
          91,
          92,
          93,
          94,
          95,
          96,
          97,
          98,
          99,
          100,
          101,
          102,
          103,
          104,
          105,
          106,
          107,
          108,
          109,
          110,
          111,
          112,
          113,
          114,
          115,
          116,
          117,
          118,
          119,
          120,
          121,
          122,
          123,
          124,
          125,
          126,
          127,
          128,
          129,
          130,
          131,
          132,
          133,
          134,
          135,
          136,
          137,
          138,
          139,
          140,
          141,
          142,
          143,
          144,
          145,
          146,
          147,
          148,
          149,
          150
        ],
        "AcquisitionTime": [
          "134855.212500",
          "134857.825000",
          "134900.435000",
          "134903.045000",
          "134905.655000",
          "134908.265000",
          "134910.877500",
          "134913.487500",
          "134916.097500",
          "134918.707500",
          "134921.317500",
          "134923.927500",
          "134926.540000",
          "134929.150000",
          "134931.760000",
          "134934.370000",
          "134936.980000",
          "134939.590000",
          "134942.202500",
          "134944.812500",
          "134947.422500",
          "134950.032500",
          "134952.642500",
          "134955.255000",
          "134957.865000",
          "135000.475000",
          "135003.085000",
          "135005.695000",
          "135008.305000",
          "135010.917500",
          "135013.527500",
          "135016.137500",
          "135018.747500",
          "135021.357500",
          "135023.967500",
          "135026.580000",
          "135029.190000",
          "135031.800000",
          "135034.410000",
          "135037.020000",
          "135039.632500",
          "135042.242500",
          "135044.852500",
          "135047.462500",
          "135050.072500",
          "135052.682500",
          "135055.295000",
          "135057.905000",
          "135100.515000",
          "135103.125000",
          "135105.735000",
          "135108.345000",
          "135110.957500",
          "135113.567500",
          "135116.177500",
          "135118.787500",
          "135121.397500",
          "135124.010000",
          "135126.620000",
          "135129.230000",
          "135131.840000",
          "135134.450000",
          "135137.060000",
          "135139.672500",
          "135142.282500",
          "135144.892500",
          "135147.502500",
          "135150.112500",
          "135152.722500",
          "135155.335000",
          "135157.945000",
          "135200.555000",
          "135203.165000",
          "135205.775000",
          "135208.387500",
          "135210.997500",
          "135213.607500",
          "135216.217500",
          "135218.827500",
          "135221.437500",
          "135224.050000",
          "135226.660000",
          "135229.270000",
          "135231.880000",
          "135234.490000",
          "135237.100000",
          "135239.712500",
          "135242.322500",
          "135244.932500",
          "135247.542500",
          "135250.152500",
          "135252.765000",
          "135255.375000",
          "135257.985000",
          "135300.595000",
          "135303.205000",
          "135305.815000",
          "135308.427500",
          "135311.037500",
          "135313.647500",
          "135316.257500",
          "135318.867500",
          "135321.477500",
          "135324.090000",
          "135326.700000",
          "135329.310000",
          "135331.920000",
          "135334.530000",
          "135337.142500",
          "135339.752500",
          "135342.362500",
          "135344.972500",
          "135347.582500",
          "135350.192500",
          "135352.805000",
          "135355.415000",
          "135358.025000",
          "135400.635000",
          "135403.245000",
          "135405.855000",
          "135408.467500",
          "135411.077500",
          "135413.687500",
          "135416.297500",
          "135418.907500",
          "135421.520000",
          "135424.130000",
          "135426.740000",
          "135429.350000",
          "135431.960000",
          "135434.570000",
          "135437.182500",
          "135439.792500",
          "135442.402500",
          "135445.012500",
          "135447.622500",
          "135450.232500",
          "135452.845000",
          "135455.455000",
          "135458.065000",
          "135500.675000",
          "135503.285000",
          "135505.897500",
          "135508.507500",
          "135511.117500",
          "135513.727500",
          "135516.337500",
          "135518.947500",
          "135521.560000",
          "135524.170000"
        ],
        "ContentTime": [
          "134904.953000",
          "134905.453000",
          "134905.953000",
          "134907.953000",
          "134910.453000",
          "134913.453000",
          "134915.953000",
          "134918.453000",
          "134920.953000",
          "134923.453000",
          "134926.453000",
          "134928.953000",
          "134931.453000",
          "134933.953000",
          "134936.453000",
          "134939.453000",
          "134941.953000",
          "134944.453000",
          "134946.953000",
          "134949.453000",
          "134952.453000",
          "134954.953000",
          "134957.453000",
          "134959.953000",
          "135002.453000",
          "135005.453000",
          "135007.953000",
          "135010.453000",
          "135012.953000",
          "135015.453000",
          "135018.453000",
          "135020.953000",
          "135023.453000",
          "135025.953000",
          "135028.453000",
          "135031.453000",
          "135033.953000",
          "135036.453000",
          "135038.953000",
          "135041.453000",
          "135044.453000",
          "135046.953000",
          "135049.453000",
          "135051.953000",
          "135054.453000",
          "135057.453000",
          "135059.953000",
          "135102.453000",
          "135104.953000",
          "135107.453000",
          "135110.453000",
          "135112.953000",
          "135115.453000",
          "135117.953000",
          "135120.453000",
          "135123.453000",
          "135125.953000",
          "135128.453000",
          "135130.953000",
          "135133.453000",
          "135136.453000",
          "135138.953000",
          "135141.453000",
          "135143.953000",
          "135146.453000",
          "135149.453000",
          "135151.953000",
          "135154.453000",
          "135156.953000",
          "135159.453000",
          "135202.453000",
          "135204.953000",
          "135207.453000",
          "135209.953000",
          "135212.453000",
          "135215.453000",
          "135217.953000",
          "135220.453000",
          "135222.953000",
          "135225.453000",
          "135228.453000",
          "135230.953000",
          "135233.453000",
          "135235.953000",
          "135238.453000",
          "135241.453000",
          "135243.953000",
          "135246.453000",
          "135248.953000",
          "135251.453000",
          "135254.453000",
          "135256.953000",
          "135259.453000",
          "135301.953000",
          "135304.453000",
          "135307.453000",
          "135309.953000",
          "135312.453000",
          "135314.953000",
          "135317.453000",
          "135320.453000",
          "135322.953000",
          "135325.453000",
          "135327.953000",
          "135330.453000",
          "135333.453000",
          "135335.953000",
          "135338.453000",
          "135340.953000",
          "135343.453000",
          "135346.453000",
          "135348.953000",
          "135351.453000",
          "135353.953000",
          "135356.453000",
          "135359.453000",
          "135401.953000",
          "135404.453000",
          "135406.953000",
          "135409.453000",
          "135412.453000",
          "135414.953000",
          "135417.453000",
          "135419.953000",
          "135422.453000",
          "135425.453000",
          "135427.953000",
          "135430.453000",
          "135432.953000",
          "135435.453000",
          "135438.453000",
          "135440.953000",
          "135443.453000",
          "135445.953000",
          "135448.453000",
          "135451.453000",
          "135453.953000",
          "135456.453000",
          "135458.953000",
          "135501.453000",
          "135504.453000",
          "135506.953000",
          "135509.453000",
          "135511.953000",
          "135514.453000",
          "135517.453000",
          "135519.953000",
          "135522.453000",
          "135524.953000",
          "135532.375000"
        ],
        "InstanceCreationTime": [
          "134904.953000",
          "134905.453000",
          "134905.953000",
          "134907.953000",
          "134910.453000",
          "134913.453000",
          "134915.953000",
          "134918.453000",
          "134920.953000",
          "134923.453000",
          "134926.453000",
          "134928.953000",
          "134931.453000",
          "134933.953000",
          "134936.453000",
          "134939.453000",
          "134941.953000",
          "134944.453000",
          "134946.953000",
          "134949.453000",
          "134952.453000",
          "134954.953000",
          "134957.453000",
          "134959.953000",
          "135002.453000",
          "135005.453000",
          "135007.953000",
          "135010.453000",
          "135012.953000",
          "135015.453000",
          "135018.453000",
          "135020.953000",
          "135023.453000",
          "135025.953000",
          "135028.453000",
          "135031.453000",
          "135033.953000",
          "135036.453000",
          "135038.953000",
          "135041.453000",
          "135044.453000",
          "135046.953000",
          "135049.453000",
          "135051.953000",
          "135054.453000",
          "135057.453000",
          "135059.953000",
          "135102.453000",
          "135104.953000",
          "135107.453000",
          "135110.453000",
          "135112.953000",
          "135115.453000",
          "135117.953000",
          "135120.453000",
          "135123.453000",
          "135125.953000",
          "135128.453000",
          "135130.953000",
          "135133.453000",
          "135136.453000",
          "135138.953000",
          "135141.453000",
          "135143.953000",
          "135146.453000",
          "135149.453000",
          "135151.953000",
          "135154.453000",
          "135156.953000",
          "135159.453000",
          "135202.453000",
          "135204.953000",
          "135207.453000",
          "135209.953000",
          "135212.453000",
          "135215.453000",
          "135217.953000",
          "135220.453000",
          "135222.953000",
          "135225.453000",
          "135228.453000",
          "135230.953000",
          "135233.453000",
          "135235.953000",
          "135238.453000",
          "135241.453000",
          "135243.953000",
          "135246.453000",
          "135248.953000",
          "135251.453000",
          "135254.453000",
          "135256.953000",
          "135259.453000",
          "135301.953000",
          "135304.453000",
          "135307.453000",
          "135309.953000",
          "135312.453000",
          "135314.953000",
          "135317.453000",
          "135320.453000",
          "135322.953000",
          "135325.453000",
          "135327.953000",
          "135330.453000",
          "135333.453000",
          "135335.953000",
          "135338.453000",
          "135340.953000",
          "135343.453000",
          "135346.453000",
          "135348.953000",
          "135351.453000",
          "135353.953000",
          "135356.453000",
          "135359.453000",
          "135401.953000",
          "135404.453000",
          "135406.953000",
          "135409.453000",
          "135412.453000",
          "135414.953000",
          "135417.453000",
          "135419.953000",
          "135422.453000",
          "135425.453000",
          "135427.953000",
          "135430.453000",
          "135432.953000",
          "135435.453000",
          "135438.453000",
          "135440.953000",
          "135443.453000",
          "135445.953000",
          "135448.453000",
          "135451.453000",
          "135453.953000",
          "135456.453000",
          "135458.953000",
          "135501.453000",
          "135504.453000",
          "135506.953000",
          "135509.453000",
          "135511.953000",
          "135514.453000",
          "135517.453000",
          "135519.953000",
          "135522.453000",
          "135524.953000",
          "135532.375000"
        ],
        "InstanceNumber": [
          1,
          2,
          3,
          4,
          5,
          6,
          7,
          8,
          9,
          10,
          11,
          12,
          13,
          14,
          15,
          16,
          17,
          18,
          19,
          20,
          21,
          22,
          23,
          24,
          25,
          26,
          27,
          28,
          29,
          30,
          31,
          32,
          33,
          34,
          35,
          36,
          37,
          38,
          39,
          40,
          41,
          42,
          43,
          44,
          45,
          46,
          47,
          48,
          49,
          50,
          51,
          52,
          53,
          54,
          55,
          56,
          57,
          58,
          59,
          60,
          61,
          62,
          63,
          64,
          65,
          66,
          67,
          68,
          69,
          70,
          71,
          72,
          73,
          74,
          75,
          76,
          77,
          78,
          79,
          80,
          81,
          82,
          83,
          84,
          85,
          86,
          87,
          88,
          89,
          90,
          91,
          92,
          93,
          94,
          95,
          96,
          97,
          98,
          99,
          100,
          101,
          102,
          103,
          104,
          105,
          106,
          107,
          108,
          109,
          110,
          111,
          112,
          113,
          114,
          115,
          116,
          117,
          118,
          119,
          120,
          121,
          122,
          123,
          124,
          125,
          126,
          127,
          128,
          129,
          130,
          131,
          132,
          133,
          134,
          135,
          136,
          137,
          138,
          139,
          140,
          141,
          142,
          143,
          144,
          145,
          146,
          147,
          148,
          149,
          150
        ],
        "WindowCenter": [
          899.0,
          898.0,
          897.0,
          896.0,
          895.0,
          895.0,
          896.0,
          896.0,
          897.0,
          897.0,
          897.0,
          897.0,
          898.0,
          898.0,
          897.0,
          897.0,
          898.0,
          898.0,
          896.0,
          897.0,
          898.0,
          897.0,
          898.0,
          898.0,
          897.0,
          897.0,
          898.0,
          897.0,
          897.0,
          897.0,
          897.0,
          897.0,
          897.0,
          897.0,
          897.0,
          897.0,
          896.0,
          896.0,
          898.0,
          898.0,
          897.0,
          896.0,
          897.0,
          896.0,
          896.0,
          895.0,
          896.0,
          897.0,
          896.0,
          897.0,
          896.0,
          895.0,
          896.0,
          898.0,
          897.0,
          896.0,
          896.0,
          896.0,
          896.0,
          895.0,
          896.0,
          896.0,
          896.0,
          896.0,
          896.0,
          896.0,
          897.0,
          897.0,
          897.0,
          897.0,
          896.0,
          896.0,
          896.0,
          897.0,
          897.0,
          896.0,
          896.0,
          896.0,
          896.0,
          896.0,
          896.0,
          895.0,
          895.0,
          896.0,
          896.0,
          898.0,
          898.0,
          897.0,
          896.0,
          896.0,
          896.0,
          895.0,
          895.0,
          895.0,
          895.0,
          895.0,
          895.0,
          895.0,
          895.0,
          895.0,
          896.0,
          896.0,
          895.0,
          895.0,
          896.0,
          897.0,
          898.0,
          898.0,
          898.0,
          898.0,
          898.0,
          898.0,
          899.0,
          899.0,
          899.0,
          898.0,
          898.0,
          898.0,
          897.0,
          897.0,
          897.0,
          897.0,
          896.0,
          895.0,
          896.0,
          895.0,
          894.0,
          894.0,
          895.0,
          895.0,
          895.0,
          894.0,
          894.0,
          895.0,
          895.0,
          896.0,
          896.0,
          895.0,
          896.0,
          897.0,
          897.0,
          897.0,
          896.0,
          896.0,
          896.0,
          895.0,
          895.0,
          896.0,
          897.0,
          897.0
        ],
        "WindowWidth": [
          2097.0,
          2091.0,
          2088.0,
          2083.0,
          2081.0,
          2083.0,
          2084.0,
          2087.0,
          2088.0,
          2090.0,
          2088.0,
          2090.0,
          2093.0,
          2091.0,
          2089.0,
          2087.0,
          2091.0,
          2091.0,
          2087.0,
          2090.0,
          2092.0,
          2092.0,
          2095.0,
          2092.0,
          2090.0,
          2093.0,
          2091.0,
          2089.0,
          2088.0,
          2088.0,
          2089.0,
          2087.0,
          2089.0,
          2090.0,
          2088.0,
          2089.0,
          2086.0,
          2086.0,
          2093.0,
          2093.0,
          2089.0,
          2086.0,
          2087.0,
          2084.0,
          2084.0,
          2083.0,
          2085.0,
          2087.0,
          2086.0,
          2087.0,
          2083.0,
          2082.0,
          2088.0,
          2092.0,
          2088.0,
          2086.0,
          2085.0,
          2084.0,
          2083.0,
          2084.0,
          2088.0,
          2087.0,
          2084.0,
          2083.0,
          2083.0,
          2083.0,
          2086.0,
          2088.0,
          2089.0,
          2088.0,
          2085.0,
          2084.0,
          2085.0,
          2090.0,
          2088.0,
          2083.0,
          2085.0,
          2086.0,
          2085.0,
          2085.0,
          2083.0,
          2081.0,
          2083.0,
          2086.0,
          2089.0,
          2094.0,
          2092.0,
          2089.0,
          2086.0,
          2083.0,
          2084.0,
          2081.0,
          2082.0,
          2084.0,
          2082.0,
          2080.0,
          2082.0,
          2081.0,
          2082.0,
          2081.0,
          2084.0,
          2085.0,
          2083.0,
          2083.0,
          2085.0,
          2090.0,
          2094.0,
          2092.0,
          2092.0,
          2092.0,
          2093.0,
          2093.0,
          2096.0,
          2097.0,
          2097.0,
          2092.0,
          2091.0,
          2091.0,
          2091.0,
          2088.0,
          2090.0,
          2090.0,
          2084.0,
          2082.0,
          2084.0,
          2082.0,
          2079.0,
          2081.0,
          2081.0,
          2083.0,
          2081.0,
          2078.0,
          2080.0,
          2080.0,
          2081.0,
          2085.0,
          2086.0,
          2084.0,
          2086.0,
          2090.0,
          2089.0,
          2090.0,
          2087.0,
          2084.0,
          2084.0,
          2082.0,
          2083.0,
          2086.0,
          2089.0,
          2088.0
        ]
      },
      "slices": {}
    }
  },
  "dummy_trs": 0,
  "dvars_nstd": 70.75710716516778,
  "dvars_std": 1.0549061044295303,
  "dvars_vstd": 1.0059233697315433,
  "efc": 0.5604651580977679,
  "fber": 369.9967956542969,
  "fd_mean": 0.05668398571921431,
  "fd_num": 1,
  "fd_perc": 0.6666666666666666,
  "fwhm_avg": 3.0530702249087427,
  "fwhm_x": 2.9889352083520775,
  "fwhm_y": 2.857709388880687,
  "fwhm_z": 3.3125660774934644,
  "gcor": 0.00241302,
  "gsr_x": -0.00811681430786848,
  "gsr_y": 0.054765187203884125,
  "provenance": {
    "md5sum": "990c6b678f66cc59ffc996707e06469d",
    "settings": {
      "fd_thres": 0.2,
      "testing": false
    },
    "software": "mriqc",
    "version": "22.0.6",
    "webapi_port": null,
    "webapi_url": "https://mriqc.nimh.nih.gov/api/v1"
  },
  "size_t": 150,
  "size_x": 188,
  "size_y": 188,
  "size_z": 46,
  "snr": 2.077886813438345,
  "spacing_tr": 2.5999999046325684,
  "spacing_x": 1.0957447290420532,
  "spacing_y": 1.0957447290420532,
  "spacing_z": 1.099999189376831,
  "summary_bg_k": 56.35097310766927,
  "summary_bg_mad": 26.212407675633333,
  "summary_bg_mean": 87.95870971679688,
  "summary_bg_median": 50.2933349609375,
  "summary_bg_n": 1044983.0,
  "summary_bg_p05": 30.746667861938477,
