{
  "aor": 0.0007382666666666667,
  "aqi": 0.012317362000000002,
  "bids_meta": {
    "AcquisitionMatrixPE": 188,
    "AcquisitionNumber": 1,
    "AcquisitionTime": "13:00:31.200000",
    "BandwidthPerPixelPhaseEncode": 19.46,
    "BaseResolution": 188,
    "CogAtlasID": "TODO",
    "ConversionSoftware": "dcm2niix",
    "ConversionSoftwareVersion": "v1.0.20180606 GCC4.8.5",
    "DelayTime": 1.2,
    "DerivedVendorReportedEchoSpacing": 0.000820013,
    "DeviceSerialNumber": "18930",
    "DwellTime": 1.9e-06,
    "EchoTime": 0.02,
    "EffectiveEchoSpacing": 0.000273338,
    "FlipAngle": 80,
    "ImageComments": "Unaliased_MB2_PE2",
    "ImageOrientationPatientDICOM": [
      0.997181,
      0.0711839,
      -0.0237294,
      -0.0291347,
      0.0758841,
      -0.996691
    ],
    "ImageType": [
      "ORIGINAL",
      "PRIMARY",
      "M",
      "MB",
      "ND",
      "MOSAIC"
    ],
    "InPlanePhaseEncodingDirectionDICOM": "COL",
    "InstitutionAddress": "Oxfordlaan_55_Maastricht_753AAF_Limburg_NL_6229_EV",
    "InstitutionName": "Scannexus",
    "InstitutionalDepartmentName": "MRI_7T",
    "MRAcquisitionType": "2D",
    "MagneticFieldStrength": 6.98,
    "Manufacturer": "Siemens",
    "ManufacturersModelName": "Investigational_Device_7T",
    "Modality": "MR",
    "MultibandAccelerationFactor": 2,
    "ParallelReductionFactorInPlane": 3,
    "PartialFourier": 0.75,
    "PatientPosition": "HFS",
    "PercentPhaseFOV": 100,
    "PhaseEncodingDirection": "j",
    "PhaseEncodingSteps": 141,
    "PhaseResolution": 1,
    "PixelBandwidth": 1400,
    "ProcedureStepDescription": "FeDem_Faruk",
    "ProtocolName": "cmrr_mbep2d_bold_AP_run5",
    "PulseSequenceDetails": "%CustomerSeq%_cmrr_mbep2d_bold",
    "ReceiveCoilName": "32Ch_Head_7T",
    "ReconMatrixPE": 188,
    "RepetitionTime": 2.6,
    "SAR": 0.0984541,
    "ScanOptions": "PFP_FS",
    "ScanningSequence": "EP",
    "SequenceName": "epfid2d1_188",
    "SequenceVariant": "SK_SS",
    "SeriesDescription": "cmrr_mbep2d_bold_AP_run5",
    "SeriesNumber": 20,
    "ShimSetting": [
      124,
      -13,
      480,
      316,
      30,
      25,
      -149,
      154
    ],
    "SliceThickness": 1.1,
    "SliceTiming": [
      0,
      0.7325,
      0.06,
      0.795,
      0.1225,
      0.855,
      0.1825,
      0.915,
      0.245,
      0.9775,
      0.305,
      1.0375,
      0.3675,
      1.1,
      0.4275,
      1.16,
      0.4875,
      1.2225,
      0.55,
      1.2825,
      0.61,
      1.345,
      0.6725,
      0,
      0.7325,
      0.06,
      0.795,
      0.1225,
      0.855,
      0.1825,
      0.915,
      0.245,
      0.9775,
      0.305,
      1.0375,
      0.3675,
      1.1,
      0.4275,
      1.16,
      0.4875,
      1.2225,
      0.55,
      1.2825,
      0.61,
      1.345,
      0.6725
    ],
    "SoftwareVersions": "syngo_MR_B17",
    "SpacingBetweenSlices": 1.1,
    "StationName": "MRC18930",
    "TaskName": "auditory",
    "TotalReadoutTime": 0.0511141,
    "TxRefAmp": 240,
    "dataset": "ds001942",
    "dcmmeta_affine": [
      [
        -1.0926557779312134,
        -0.03192422166466713,
        0.07606232911348343,
        100.94556427001953
      ],
      [
        -0.07799933105707169,
        0.08314957469701767,
        -1.0940289497375488,
        45.8215217590332
      ],
      [
        -0.026001356542110443,
        1.0921188592910767,
        0.08551841974258423,
        -111.3921890258789
      ],
      [
        0.0,
        0.0,
        0.0,
        1.0
      ]
    ],
    "dcmmeta_reorient_transform": [
      [
        0.0,
        -1.0,
        0.0,
        187.0
      ],
      [
        1.0,
        0.0,
        0.0,
        0.0
      ],
      [
        0.0,
        0.0,
        1.0,
        0.0
      ],
      [
        0.0,
        0.0,
        0.0,
        1.0
      ]
    ],
    "dcmmeta_shape": [
      188,
      188,
      46,
      150
    ],
    "dcmmeta_slice_dim": 2,
    "dcmmeta_version": 0.6,
    "global": {
      "const": {
        "AcquisitionMatrix": [
          188,
          0,
          0,
          188
        ],
        "AngioFlag": "N",
        "BitsAllocated": 16,
        "BitsStored": 12,
        "Columns": 1316,
        "EchoNumbers": 1,
        "EchoTime": 20.0,
        "EchoTrainLength": 1,
        "FlipAngle": 80.0,
        "HighBit": 11,
        "ImageOrientationPatient": [
          0.99718091373392,
          0.07118385490261,
          -0.0237293928702,
          -0.0291347245826,
          0.07588407592936,
          -0.9966909123915
        ],
        "ImagePositionPatient": [
          -693.22830466268,
          -152.25847882604,
          723.45380250763
        ],
        "ImageType": [
          "ORIGINAL",
          "PRIMARY",
          "M",
          "MB",
          "ND",
          "MOSAIC"
        ],
        "ImagedNucleus": "1H",
        "ImagingFrequency": 297.205596,
        "InPlanePhaseEncodingDirection": "COL",
        "LargestImagePixelValue": 4095,
        "MRAcquisitionType": "2D",
        "MagneticFieldStrength": 6.98,
        "Manufacturer": "SIEMENS",
        "ManufacturerModelName": "Investigational_Device_7T",
        "Modality": "MR",
        "NumberOfAverages": 1.0,
        "NumberOfPhaseEncodingSteps": 141,
        "PercentPhaseFieldOfView": 100.0,
        "PercentSampling": 100.0,
        "PerformedProcedureStepStartTime": "115418.265000",
        "PhotometricInterpretation": "MONOCHROME2",
        "PixelBandwidth": 1400.0,
        "PixelRepresentation": 0,
        "PixelSpacing": [
          1.0957447290421,
          1.0957447290421
        ],
        "ProtocolName": "cmrr_mbep2d_bold_AP_run5",
        "RepetitionTime": 2600.0,
        "Rows": 1316,
        "SAR": 0.09845412054509,
        "SamplesPerPixel": 1,
        "ScanOptions": [
          "PFP",
          "FS"
        ],
        "ScanningSequence": "EP",
        "SequenceName": "epfid2d1_188",
        "SequenceVariant": [
          "SK",
          "SS"
        ],
        "SeriesDescription": "cmrr_mbep2d_bold_AP_run5",
        "SeriesNumber": 20,
        "SeriesTime": "130040.609000",
        "SliceLocation": -47.252764297263,
        "SliceThickness": 1.1000000238419,
        "SmallestImagePixelValue": 0,
        "SoftwareVersions": "syngo MR B17",
        "SpacingBetweenSlices": 1.099999210794,
        "SpecificCharacterSet": "ISO_IR 100",
        "StudyID": "1",
        "StudyTime": "115418.140000",
        "TransmitCoilName": "32Ch_Head_7T",
        "VariableFlipAngleFlag": "N",
        "WindowCenterWidthExplanation": "Algo1",
        "dBdt": 0.0
      },
      "slices": {}
    },
    "modality": "bold",
    "run_id": 5,
    "session_id": "SES02",
    "subject_id": "S11",
    "task_id": "auditory",
    "time": {
      "samples": {
        "AcquisitionNumber": [
          1,
          2,
          3,
          4,
          5,
          6,
          7,
          8,
          9,
          10,
          11,
          12,
          13,
          14,
          15,
          16,
          17,
          18,
          19,
          20,
          21,
          22,
          23,
          24,
          25,
          26,
          27,
          28,
          29,
          30,
          31,
          32,
          33,
          34,
          35,
          36,
          37,
          38,
          39,
          40,
          41,
          42,
          43,
          44,
          45,
          46,
          47,
          48,
          49,
          50,
          51,
          52,
          53,
          54,
          55,
          56,
          57,
          58,
          59,
          60,
          61,
          62,
          63,
          64,
          65,
          66,
          67,
          68,
          69,
          70,
          71,
          72,
          73,
          74,
          75,
          76,
          77,
          78,
          79,
          80,
          81,
          82,
          83,
          84,
          85,
          86,
          87,
          88,
          89,
          90,
          91,
          92,
          93,
          94,
          95,
          96,
          97,
          98,
          99,
          100,
          101,
          102,
          103,
          104,
          105,
          106,
          107,
          108,
          109,
          110,
          111,
          112,
          113,
          114,
          115,
          116,
          117,
          118,
          119,
          120,
          121,
          122,
          123,
          124,
          125,
          126,
          127,
          128,
          129,
          130,
          131,
          132,
          133,
          134,
          135,
          136,
          137,
          138,
          139,
          140,
          141,
          142,
          143,
          144,
          145,
          146,
          147,
          148,
          149,
          150
        ],
        "AcquisitionTime": [
          "130031.200000",
          "130033.810000",
          "130036.420000",
          "130039.030000",
          "130041.642500",
          "130044.252500",
          "130046.862500",
          "130049.472500",
          "130052.082500",
          "130054.692500",
          "130057.305000",
          "130059.915000",
          "130102.525000",
          "130105.135000",
          "130107.745000",
          "130110.357500",
          "130112.967500",
          "130115.577500",
          "130118.187500",
          "130120.797500",
          "130123.407500",
          "130126.020000",
          "130128.630000",
          "130131.240000",
          "130133.850000",
          "130136.460000",
          "130139.070000",
          "130141.682500",
          "130144.292500",
          "130146.902500",
          "130149.512500",
          "130152.122500",
          "130154.735000",
          "130157.345000",
          "130159.955000",
          "130202.565000",
          "130205.175000",
          "130207.785000",
          "130210.397500",
          "130213.007500",
          "130215.617500",
          "130218.227500",
          "130220.837500",
          "130223.447500",
          "130226.060000",
          "130228.670000",
          "130231.280000",
          "130233.890000",
          "130236.500000",
          "130239.112500",
          "130241.722500",
          "130244.332500",
          "130246.942500",
          "130249.552500",
          "130252.162500",
          "130254.775000",
          "130257.385000",
          "130259.995000",
          "130302.605000",
          "130305.215000",
          "130307.825000",
          "130310.437500",
          "130313.047500",
          "130315.657500",
          "130318.267500",
          "130320.877500",
          "130323.490000",
          "130326.100000",
          "130328.710000",
          "130331.320000",
          "130333.930000",
          "130336.540000",
          "130339.152500",
          "130341.762500",
          "130344.372500",
          "130346.982500",
          "130349.592500",
          "130352.202500",
          "130354.815000",
          "130357.425000",
          "130400.035000",
          "130402.645000",
          "130405.255000",
          "130407.867500",
          "130410.477500",
          "130413.087500",
          "130415.697500",
          "130418.307500",
          "130420.917500",
          "130423.530000",
          "130426.140000",
          "130428.750000",
          "130431.360000",
          "130433.970000",
          "130436.580000",
          "130439.192500",
          "130441.802500",
          "130444.412500",
          "130447.022500",
          "130449.632500",
          "130452.245000",
          "130454.855000",
          "130457.465000",
          "130500.075000",
          "130502.685000",
          "130505.295000",
          "130507.907500",
          "130510.517500",
          "130513.127500",
          "130515.737500",
          "130518.347500",
          "130520.957500",
          "130523.570000",
          "130526.180000",
          "130528.790000",
          "130531.400000",
          "130534.010000",
          "130536.622500",
          "130539.232500",
          "130541.842500",
          "130544.452500",
          "130547.062500",
          "130549.672500",
          "130552.285000",
          "130554.895000",
          "130557.505000",
          "130600.115000",
          "130602.725000",
          "130605.335000",
          "130607.947500",
          "130610.557500",
          "130613.167500",
          "130615.777500",
          "130618.387500",
          "130621.000000",
          "130623.610000",
          "130626.220000",
          "130628.830000",
          "130631.440000",
          "130634.050000",
          "130636.662500",
          "130639.272500",
          "130641.882500",
          "130644.492500",
          "130647.102500",
          "130649.712500",
          "130652.325000",
          "130654.935000",
          "130657.545000",
          "130700.155000"
        ],
        "ContentTime": [
          "130040.609000",
          "130040.625000",
          "130041.609000",
          "130043.609000",
          "130046.109000",
          "130048.609000",
          "130051.609000",
          "130054.109000",
          "130056.609000",
          "130059.109000",
          "130101.609000",
          "130104.609000",
          "130107.109000",
          "130109.609000",
          "130112.109000",
          "130115.109000",
          "130117.609000",
          "130120.109000",
          "130122.609000",
          "130125.109000",
          "130128.109000",
          "130130.609000",
          "130133.109000",
          "130135.609000",
          "130138.109000",
          "130141.109000",
          "130143.609000",
          "130146.109000",
          "130148.609000",
          "130151.109000",
          "130153.609000",
          "130156.609000",
          "130159.109000",
          "130201.609000",
          "130204.109000",
          "130206.609000",
          "130209.609000",
          "130212.109000",
          "130214.609000",
          "130217.109000",
          "130219.609000",
          "130222.609000",
          "130225.109000",
          "130227.609000",
          "130230.109000",
          "130232.609000",
          "130235.609000",
          "130238.109000",
          "130240.609000",
          "130243.109000",
          "130245.609000",
          "130248.609000",
          "130251.109000",
          "130253.609000",
          "130256.109000",
          "130258.609000",
          "130301.609000",
          "130304.109000",
          "130306.609000",
          "130309.109000",
          "130312.109000",
          "130314.609000",
          "130317.109000",
          "130319.609000",
          "130322.109000",
          "130325.109000",
          "130327.609000",
          "130330.109000",
          "130332.609000",
          "130335.109000",
          "130337.609000",
          "130340.609000",
          "130343.109000",
          "130345.609000",
          "130348.109000",
          "130351.109000",
          "130353.609000",
          "130356.109000",
          "130358.609000",
          "130401.109000",
          "130403.609000",
          "130406.609000",
          "130409.109000",
          "130411.609000",
          "130414.109000",
          "130416.609000",
          "130419.609000",
          "130422.109000",
          "130424.609000",
          "130427.109000",
          "130429.609000",
          "130432.609000",
          "130435.109000",
          "130437.609000",
          "130440.109000",
          "130443.109000",
          "130445.609000",
          "130448.109000",
          "130450.609000",
          "130453.109000",
          "130455.609000",
          "130458.609000",
          "130501.109000",
          "130503.609000",
          "130506.109000",
          "130508.609000",
          "130511.609000",
          "130514.109000",
          "130516.609000",
          "130519.109000",
          "130522.109000",
          "130524.609000",
          "130527.109000",
          "130529.609000",
          "130532.109000",
          "130534.609000",
          "130537.609000",
          "130540.109000",
          "130542.609000",
          "130545.109000",
          "130547.609000",
          "130550.609000",
          "130553.109000",
          "130555.609000",
          "130558.109000",
          "130600.609000",
          "130603.609000",
          "130606.109000",
          "130608.609000",
          "130611.109000",
          "130614.109000",
          "130616.609000",
          "130619.109000",
          "130621.609000",
          "130624.109000",
          "130626.609000",
          "130629.609000",
          "130632.109000",
          "130634.609000",
          "130637.109000",
          "130640.109000",
          "130642.609000",
          "130645.109000",
          "130647.609000",
          "130650.109000",
          "130652.609000",
          "130655.609000",
          "130658.109000",
          "130700.609000",
          "130707.984000"
        ],
        "InstanceCreationTime": [
          "130040.609000",
          "130040.625000",
          "130041.609000",
          "130043.609000",
          "130046.109000",
          "130048.609000",
          "130051.609000",
          "130054.109000",
          "130056.609000",
          "130059.109000",
          "130101.609000",
          "130104.609000",
          "130107.109000",
          "130109.609000",
          "130112.109000",
          "130115.109000",
          "130117.609000",
          "130120.109000",
          "130122.609000",
          "130125.109000",
          "130128.109000",
          "130130.609000",
          "130133.109000",
          "130135.609000",
          "130138.109000",
          "130141.109000",
          "130143.609000",
          "130146.109000",
          "130148.609000",
          "130151.109000",
          "130153.609000",
          "130156.609000",
          "130159.109000",
          "130201.609000",
          "130204.109000",
          "130206.609000",
          "130209.609000",
          "130212.109000",
          "130214.609000",
          "130217.109000",
          "130219.609000",
          "130222.609000",
          "130225.109000",
          "130227.609000",
          "130230.109000",
          "130232.609000",
          "130235.609000",
          "130238.109000",
          "130240.609000",
          "130243.109000",
          "130245.609000",
          "130248.609000",
          "130251.109000",
          "130253.609000",
          "130256.109000",
          "130258.609000",
          "130301.609000",
          "130304.109000",
          "130306.609000",
          "130309.109000",
          "130312.109000",
          "130314.609000",
          "130317.109000",
          "130319.609000",
          "130322.109000",
          "130325.109000",
          "130327.609000",
          "130330.109000",
          "130332.609000",
          "130335.109000",
          "130337.609000",
          "130340.609000",
          "130343.109000",
          "130345.609000",
          "130348.109000",
          "130351.109000",
          "130353.609000",
          "130356.109000",
          "130358.609000",
          "130401.109000",
          "130403.609000",
          "130406.609000",
          "130409.109000",
          "130411.609000",
          "130414.109000",
          "130416.609000",
          "130419.609000",
          "130422.109000",
          "130424.609000",
          "130427.109000",
          "130429.609000",
          "130432.609000",
          "130435.109000",
          "130437.609000",
          "130440.109000",
          "130443.109000",
          "130445.609000",
          "130448.109000",
          "130450.609000",
          "130453.109000",
          "130455.609000",
          "130458.609000",
          "130501.109000",
          "130503.609000",
          "130506.109000",
          "130508.609000",
          "130511.609000",
          "130514.109000",
          "130516.609000",
          "130519.109000",
          "130522.109000",
          "130524.609000",
          "130527.109000",
          "130529.609000",
          "130532.109000",
          "130534.609000",
          "130537.609000",
          "130540.109000",
          "130542.609000",
          "130545.109000",
          "130547.609000",
          "130550.609000",
          "130553.109000",
          "130555.609000",
          "130558.109000",
          "130600.609000",
          "130603.609000",
          "130606.109000",
          "130608.609000",
          "130611.109000",
          "130614.109000",
          "130616.609000",
          "130619.109000",
          "130621.609000",
          "130624.109000",
          "130626.609000",
          "130629.609000",
          "130632.109000",
          "130634.609000",
          "130637.109000",
          "130640.109000",
          "130642.609000",
          "130645.109000",
          "130647.609000",
          "130650.109000",
          "130652.609000",
          "130655.609000",
          "130658.109000",
          "130700.609000",
          "130707.984000"
        ],
        "InstanceNumber": [
          1,
          2,
          3,
          4,
          5,
          6,
          7,
          8,
          9,
          10,
          11,
          12,
          13,
          14,
          15,
          16,
          17,
          18,
          19,
          20,
          21,
          22,
          23,
          24,
          25,
          26,
          27,
          28,
          29,
          30,
          31,
          32,
          33,
          34,
          35,
          36,
          37,
          38,
          39,
          40,
          41,
          42,
          43,
          44,
          45,
          46,
          47,
          48,
          49,
          50,
          51,
          52,
          53,
          54,
          55,
          56,
          57,
          58,
          59,
          60,
          61,
          62,
          63,
          64,
          65,
          66,
          67,
          68,
          69,
          70,
          71,
          72,
          73,
          74,
          75,
          76,
          77,
          78,
          79,
          80,
          81,
          82,
          83,
          84,
          85,
          86,
          87,
          88,
          89,
          90,
          91,
          92,
          93,
          94,
          95,
          96,
          97,
          98,
          99,
          100,
          101,
          102,
          103,
          104,
          105,
          106,
          107,
          108,
          109,
          110,
          111,
          112,
          113,
          114,
          115,
          116,
          117,
          118,
          119,
          120,
          121,
          122,
          123,
          124,
          125,
          126,
          127,
          128,
          129,
          130,
          131,
          132,
          133,
          134,
          135,
          136,
          137,
          138,
          139,
          140,
          141,
          142,
          143,
          144,
          145,
          146,
          147,
          148,
          149,
          150
        ],
        "WindowCenter": [
          898.0,
          896.0,
          896.0,
          896.0,
          896.0,
          897.0,
          897.0,
          897.0,
          896.0,
          895.0,
          896.0,
          898.0,
          897.0,
          897.0,
          897.0,
          897.0,
          897.0,
          896.0,
          897.0,
          899.0,
          899.0,
          897.0,
          896.0,
          895.0,
          894.0,
          894.0,
          894.0,
          894.0,
          897.0,
          897.0,
          895.0,
          894.0,
          893.0,
          893.0,
          893.0,
          893.0,
          894.0,
          894.0,
          895.0,
          897.0,
          897.0,
          897.0,
          896.0,
          895.0,
          895.0,
          895.0,
          896.0,
          895.0,
          894.0,
          895.0,
          895.0,
          895.0,
          896.0,
          897.0,
          896.0,
          895.0,
          894.0,
          896.0,
          898.0,
          898.0,
          896.0,
          895.0,
          895.0,
          896.0,
          896.0,
          897.0,
          896.0,
          895.0,
          896.0,
          897.0,
          895.0,
          894.0,
          894.0,
          894.0,
          894.0,
          893.0,
          894.0,
          895.0,
          895.0,
          895.0,
          896.0,
          896.0,
          895.0,
          895.0,
          895.0,
          895.0,
          897.0,
          898.0,
          900.0,
          899.0,
          898.0,
          897.0,
          898.0,
          898.0,
          897.0,
          897.0,
          897.0,
          895.0,
          895.0,
          896.0,
          896.0,
          896.0,
          896.0,
          897.0,
          898.0,
          898.0,
          897.0,
          896.0,
          896.0,
          897.0,
          896.0,
          897.0,
          897.0,
          896.0,
          896.0,
          896.0,
          897.0,
          898.0,
          899.0,
          897.0,
          896.0,
          896.0,
          896.0,
          895.0,
          896.0,
          895.0,
          895.0,
          895.0,
          896.0,
          900.0,
          900.0,
          898.0,
          897.0,
          897.0,
          896.0,
          895.0,
          896.0,
          895.0,
          895.0,
          895.0,
          896.0,
          896.0,
          897.0,
          897.0,
          897.0,
          896.0,
          895.0,
          896.0,
          896.0,
          897.0
        ],
        "WindowWidth": [
          2091.0,
          2084.0,
          2084.0,
          2085.0,
          2087.0,
          2088.0,
          2089.0,
          2090.0,
          2086.0,
          2083.0,
          2087.0,
          2092.0,
          2091.0,
          2091.0,
          2091.0,
          2089.0,
          2088.0,
          2088.0,
          2092.0,
          2100.0,
          2097.0,
          2090.0,
          2086.0,
          2082.0,
          2081.0,
          2081.0,
          2080.0,
          2081.0,
          2091.0,
          2089.0,
          2081.0,
          2080.0,
          2077.0,
          2076.0,
          2075.0,
          2077.0,
          2080.0,
          2079.0,
          2084.0,
          2092.0,
          2090.0,
          2088.0,
          2084.0,
          2081.0,
          2082.0,
          2085.0,
          2084.0,
          2082.0,
          2081.0,
          2083.0,
          2082.0,
          2083.0,
          2088.0,
          2089.0,
          2086.0,
          2082.0,
          2081.0,
          2089.0,
          2095.0,
          2091.0,
          2086.0,
          2081.0,
          2083.0,
          2085.0,
          2087.0,
          2088.0,
          2084.0,
          2082.0,
          2087.0,
          2088.0,
          2083.0,
          2079.0,
          2079.0,
          2081.0,
          2080.0,
          2077.0,
          2080.0,
          2084.0,
          2083.0,
          2083.0,
          2087.0,
          2085.0,
          2083.0,
          2081.0,
          2082.0,
          2085.0,
          2090.0,
          2094.0,
          2101.0,
          2096.0,
          2091.0,
          2092.0,
          2094.0,
          2092.0,
          2090.0,
          2091.0,
          2090.0,
          2084.0,
          2084.0,
          2088.0,
          2088.0,
          2084.0,
          2085.0,
          2092.0,
          2093.0,
          2091.0,
          2089.0,
          2086.0,
          2088.0,
          2088.0,
          2086.0,
          2091.0,
          2088.0,
          2087.0,
          2089.0,
          2088.0,
          2091.0,
          2094.0,
          2097.0,
          2090.0,
          2088.0,
          2087.0,
          2084.0,
          2084.0,
          2086.0,
          2084.0,
          2084.0,
          2086.0,
          2088.0,
          2103.0,
          2101.0,
          2094.0,
          2090.0,
          2091.0,
          2086.0,
          2083.0,
          2088.0,
          2083.0,
          2081.0,
          2085.0,
          2085.0,
          2088.0,
          2091.0,
          2090.0,
          2088.0,
          2085.0,
          2084.0,
          2087.0,
          2089.0,
          2092.0
        ]
      },
      "slices": {}
    }
  },
  "dummy_trs": 0,
  "dvars_nstd": 69.686568394698,
  "dvars_std": 1.0567670626845636,
  "dvars_vstd": 1.0198664557718127,
  "efc": 0.56002313457299,
  "fber": 374.02398681640625,
  "fd_mean": 0.06937685009666253,
  "fd_num": 4,
  "fd_perc": 2.6666666666666665,
  "fwhm_avg": 3.0337035395449465,
  "fwhm_x": 2.966804141364239,
  "fwhm_y": 2.851631330895574,
  "fwhm_z": 3.282675146375027,
  "gcor": 0.00415012,
  "gsr_x": -0.00920238345861435,
  "gsr_y": 0.05554581061005592,
  "provenance": {
    "md5sum": "ae953cd80c98a6e49ae84ec1cada8f2e",
    "settings": {
      "fd_thres": 0.2,
      "testing": false
    },
    "software": "mriqc",
    "version": "22.0.6",
    "webapi_port": null,
    "webapi_url": "https://mriqc.nimh.nih.gov/api/v1"
  },
  "size_t": 150,
  "size_x": 188,
  "size_y": 188,
  "size_z": 46,
  "snr": 2.087504415384143,
  "spacing_tr": 2.5999999046325684,
  "spacing_x": 1.0957447290420532,
  "spacing_y": 1.0957447290420532,
  "spacing_z": 1.099999189376831,
  "summary_bg_k": 56.58049634422446,
  "summary_bg_mad": 25.73797541816583,
  "summary_bg_mean": 87.44190216064453,
  "summary_bg_median": 50.026668548583984,
  "summary_bg_n": 1045658.0,
  "summary_bg_p05": 30.886667251586914,
