{
  "aor": 0.0006647999999999999,
  "aqi": 0.014110475999999999,
  "bids_meta": {
    "AcquisitionMatrixPE": 188,
    "AcquisitionNumber": 1,
    "AcquisitionTime": "13:26:5.137500",
    "BandwidthPerPixelPhaseEncode": 19.46,
    "BaseResolution": 188,
    "CogAtlasID": "TODO",
    "ConversionSoftware": "dcm2niix",
    "ConversionSoftwareVersion": "v1.0.20180606 GCC4.8.5",
    "DelayTime": 1.2,
    "DerivedVendorReportedEchoSpacing": 0.000820013,
    "DeviceSerialNumber": "18930",
    "DwellTime": 1.9e-06,
    "EchoTime": 0.02,
    "EffectiveEchoSpacing": 0.000273338,
    "FlipAngle": 80,
    "ImageComments": "Unaliased_MB2_PE2",
    "ImageOrientationPatientDICOM": [
      0.997181,
      0.0711839,
      -0.0237294,
      -0.0291347,
      0.0758841,
      -0.996691
    ],
    "ImageType": [
      "ORIGINAL",
      "PRIMARY",
      "M",
      "MB",
      "ND",
      "MOSAIC"
    ],
    "InPlanePhaseEncodingDirectionDICOM": "COL",
    "InstitutionAddress": "Oxfordlaan_55_Maastricht_753AAF_Limburg_NL_6229_EV",
    "InstitutionName": "Scannexus",
    "InstitutionalDepartmentName": "MRI_7T",
    "MRAcquisitionType": "2D",
    "MagneticFieldStrength": 6.98,
    "Manufacturer": "Siemens",
    "ManufacturersModelName": "Investigational_Device_7T",
    "Modality": "MR",
    "MultibandAccelerationFactor": 2,
    "ParallelReductionFactorInPlane": 3,
    "PartialFourier": 0.75,
    "PatientPosition": "HFS",
    "PercentPhaseFOV": 100,
    "PhaseEncodingDirection": "j",
    "PhaseEncodingSteps": 141,
    "PhaseResolution": 1,
    "PixelBandwidth": 1400,
    "ProcedureStepDescription": "FeDem_Faruk",
    "ProtocolName": "cmrr_mbep2d_bold_AP_run8",
    "PulseSequenceDetails": "%CustomerSeq%_cmrr_mbep2d_bold",
    "ReceiveCoilName": "32Ch_Head_7T",
    "ReconMatrixPE": 188,
    "RepetitionTime": 2.6,
    "SAR": 0.0988144,
    "ScanOptions": "PFP_FS",
    "ScanningSequence": "EP",
    "SequenceName": "epfid2d1_188",
    "SequenceVariant": "SK_SS",
    "SeriesDescription": "cmrr_mbep2d_bold_AP_run8",
    "SeriesNumber": 25,
    "ShimSetting": [
      124,
      -13,
      480,
      316,
      30,
      25,
      -149,
      154
    ],
    "SliceThickness": 1.1,
    "SliceTiming": [
      0,
      0.7325,
      0.06,
      0.7925,
      0.12,
      0.855,
      0.1825,
      0.915,
      0.2425,
      0.9775,
      0.305,
      1.0375,
      0.365,
      1.0975,
      0.4275,
      1.16,
      0.4875,
      1.22,
      0.55,
      1.2825,
      0.61,
      1.3425,
      0.67,
      0,
      0.7325,
      0.06,
      0.7925,
      0.12,
      0.855,
      0.1825,
      0.915,
      0.2425,
      0.9775,
      0.305,
      1.0375,
      0.365,
      1.0975,
      0.4275,
      1.16,
      0.4875,
      1.22,
      0.55,
      1.2825,
      0.61,
      1.3425,
      0.67
    ],
    "SoftwareVersions": "syngo_MR_B17",
    "SpacingBetweenSlices": 1.1,
    "StationName": "MRC18930",
    "TaskName": "auditory",
    "TotalReadoutTime": 0.0511141,
    "TxRefAmp": 240,
    "dataset": "ds001942",
    "dcmmeta_affine": [
      [
        -1.0926557779312134,
        -0.03192422166466713,
        0.07606232911348343,
        100.94556427001953
      ],
      [
        -0.07799933105707169,
        0.08314957469701767,
        -1.0940289497375488,
        45.8215217590332
      ],
      [
        -0.026001356542110443,
        1.0921188592910767,
        0.08551841974258423,
        -111.3921890258789
      ],
      [
        0.0,
        0.0,
        0.0,
        1.0
      ]
    ],
    "dcmmeta_reorient_transform": [
      [
        0.0,
        -1.0,
        0.0,
        187.0
      ],
      [
        1.0,
        0.0,
        0.0,
        0.0
      ],
      [
        0.0,
        0.0,
        1.0,
        0.0
      ],
      [
        0.0,
        0.0,
        0.0,
        1.0
      ]
    ],
    "dcmmeta_shape": [
      188,
      188,
      46,
      150
    ],
    "dcmmeta_slice_dim": 2,
    "dcmmeta_version": 0.6,
    "global": {
      "const": {
        "AcquisitionMatrix": [
          188,
          0,
          0,
          188
        ],
        "AngioFlag": "N",
        "BitsAllocated": 16,
        "BitsStored": 12,
        "Columns": 1316,
        "EchoNumbers": 1,
        "EchoTime": 20.0,
        "EchoTrainLength": 1,
        "FlipAngle": 80.0,
        "HighBit": 11,
        "ImageOrientationPatient": [
          0.99718091373392,
          0.07118385490261,
          -0.0237293928702,
          -0.0291347245826,
          0.07588407592936,
          -0.9966909123915
        ],
        "ImagePositionPatient": [
          -693.22830466268,
          -152.25847882604,
          723.45380250763
        ],
        "ImageType": [
          "ORIGINAL",
          "PRIMARY",
          "M",
          "MB",
          "ND",
          "MOSAIC"
        ],
        "ImagedNucleus": "1H",
        "ImagingFrequency": 297.205601,
        "InPlanePhaseEncodingDirection": "COL",
        "LargestImagePixelValue": 4095,
        "MRAcquisitionType": "2D",
        "MagneticFieldStrength": 6.98,
        "Manufacturer": "SIEMENS",
        "ManufacturerModelName": "Investigational_Device_7T",
        "Modality": "MR",
        "NumberOfAverages": 1.0,
        "NumberOfPhaseEncodingSteps": 141,
        "PercentPhaseFieldOfView": 100.0,
        "PercentSampling": 100.0,
        "PerformedProcedureStepStartTime": "115418.265000",
        "PhotometricInterpretation": "MONOCHROME2",
        "PixelBandwidth": 1400.0,
        "PixelRepresentation": 0,
        "PixelSpacing": [
          1.0957447290421,
          1.0957447290421
        ],
        "ProtocolName": "cmrr_mbep2d_bold_AP_run8",
        "RepetitionTime": 2600.0,
        "Rows": 1316,
        "SAR": 0.09881438993497,
        "SamplesPerPixel": 1,
        "ScanOptions": [
          "PFP",
          "FS"
        ],
        "ScanningSequence": "EP",
        "SequenceName": "epfid2d1_188",
        "SequenceVariant": [
          "SK",
          "SS"
        ],
        "SeriesDescription": "cmrr_mbep2d_bold_AP_run8",
        "SeriesNumber": 25,
        "SeriesTime": "132614.375000",
        "SliceLocation": -47.252764297263,
        "SliceThickness": 1.1000000238419,
        "SmallestImagePixelValue": 0,
        "SoftwareVersions": "syngo MR B17",
        "SpacingBetweenSlices": 1.099999210794,
        "SpecificCharacterSet": "ISO_IR 100",
        "StudyID": "1",
        "StudyTime": "115418.140000",
        "TransmitCoilName": "32Ch_Head_7T",
        "VariableFlipAngleFlag": "N",
        "WindowCenterWidthExplanation": "Algo1",
        "dBdt": 0.0
      },
      "slices": {}
    },
    "modality": "bold",
    "run_id": 8,
    "session_id": "SES02",
    "subject_id": "S11",
    "task_id": "auditory",
    "time": {
      "samples": {
        "AcquisitionNumber": [
          1,
          2,
          3,
          4,
          5,
          6,
          7,
          8,
          9,
          10,
          11,
          12,
          13,
          14,
          15,
          16,
          17,
          18,
          19,
          20,
          21,
          22,
          23,
          24,
          25,
          26,
          27,
          28,
          29,
          30,
          31,
          32,
          33,
          34,
          35,
          36,
          37,
          38,
          39,
          40,
          41,
          42,
          43,
          44,
          45,
          46,
          47,
          48,
          49,
          50,
          51,
          52,
          53,
          54,
          55,
          56,
          57,
          58,
          59,
          60,
          61,
          62,
          63,
          64,
          65,
          66,
          67,
          68,
          69,
          70,
          71,
          72,
          73,
          74,
          75,
          76,
          77,
          78,
          79,
          80,
          81,
          82,
          83,
          84,
          85,
          86,
          87,
          88,
          89,
          90,
          91,
          92,
          93,
          94,
          95,
          96,
          97,
          98,
          99,
          100,
          101,
          102,
          103,
          104,
          105,
          106,
          107,
          108,
          109,
          110,
          111,
          112,
          113,
          114,
          115,
          116,
          117,
          118,
          119,
          120,
          121,
          122,
          123,
          124,
          125,
          126,
          127,
          128,
          129,
          130,
          131,
          132,
          133,
          134,
          135,
          136,
          137,
          138,
          139,
          140,
          141,
          142,
          143,
          144,
          145,
          146,
          147,
          148,
          149,
          150
        ],
        "AcquisitionTime": [
          "132605.137500",
          "132607.747500",
          "132610.357500",
          "132612.967500",
          "132615.577500",
          "132618.187500",
          "132620.800000",
          "132623.410000",
          "132626.020000",
          "132628.630000",
          "132631.240000",
          "132633.850000",
          "132636.462500",
          "132639.072500",
          "132641.682500",
          "132644.292500",
          "132646.902500",
          "132649.515000",
          "132652.125000",
          "132654.735000",
          "132657.345000",
          "132659.955000",
          "132702.565000",
          "132705.177500",
          "132707.787500",
          "132710.397500",
          "132713.007500",
          "132715.617500",
          "132718.227500",
          "132720.840000",
          "132723.450000",
          "132726.060000",
          "132728.670000",
          "132731.280000",
          "132733.892500",
          "132736.502500",
          "132739.112500",
          "132741.722500",
          "132744.332500",
          "132746.942500",
          "132749.555000",
          "132752.165000",
          "132754.775000",
          "132757.385000",
          "132759.995000",
          "132802.605000",
          "132805.217500",
          "132807.827500",
          "132810.437500",
          "132813.047500",
          "132815.657500",
          "132818.270000",
          "132820.880000",
          "132823.490000",
          "132826.100000",
          "132828.710000",
          "132831.320000",
          "132833.932500",
          "132836.542500",
          "132839.152500",
          "132841.762500",
          "132844.372500",
          "132846.982500",
          "132849.595000",
          "132852.205000",
          "132854.815000",
          "132857.425000",
          "132900.035000",
          "132902.647500",
          "132905.257500",
          "132907.867500",
          "132910.477500",
          "132913.087500",
          "132915.697500",
          "132918.310000",
          "132920.920000",
          "132923.530000",
          "132926.140000",
          "132928.750000",
          "132931.360000",
          "132933.972500",
          "132936.582500",
          "132939.192500",
          "132941.802500",
          "132944.412500",
          "132947.025000",
          "132949.635000",
          "132952.245000",
          "132954.855000",
          "132957.465000",
          "133000.075000",
          "133002.687500",
          "133005.297500",
          "133007.907500",
          "133010.517500",
          "133013.127500",
          "133015.737500",
          "133018.350000",
          "133020.960000",
          "133023.570000",
          "133026.180000",
          "133028.790000",
          "133031.402500",
          "133034.012500",
          "133036.622500",
          "133039.232500",
          "133041.842500",
          "133044.452500",
          "133047.065000",
          "133049.675000",
          "133052.285000",
          "133054.895000",
          "133057.505000",
          "133100.115000",
          "133102.727500",
          "133105.337500",
          "133107.947500",
          "133110.557500",
          "133113.167500",
          "133115.780000",
          "133118.390000",
          "133121.000000",
          "133123.610000",
          "133126.220000",
          "133128.830000",
          "133131.442500",
          "133134.052500",
          "133136.662500",
          "133139.272500",
          "133141.882500",
          "133144.495000",
          "133147.105000",
          "133149.715000",
          "133152.325000",
          "133154.935000",
          "133157.545000",
          "133200.157500",
          "133202.767500",
          "133205.377500",
          "133207.987500",
          "133210.597500",
          "133213.207500",
          "133215.820000",
          "133218.430000",
          "133221.040000",
          "133223.650000",
          "133226.260000",
          "133228.872500",
          "133231.482500",
          "133234.092500"
        ],
        "ContentTime": [
          "132614.375000",
          "132614.859000",
          "132615.359000",
          "132617.359000",
          "132619.859000",
          "132622.359000",
          "132625.359000",
          "132627.859000",
          "132630.359000",
          "132632.859000",
          "132635.859000",
          "132638.359000",
          "132640.859000",
          "132643.359000",
          "132645.859000",
          "132648.359000",
          "132651.359000",
          "132653.859000",
          "132656.359000",
          "132658.859000",
          "132701.859000",
          "132704.359000",
          "132706.859000",
          "132709.359000",
          "132711.859000",
          "132714.859000",
          "132717.359000",
          "132719.859000",
          "132722.359000",
          "132724.859000",
          "132727.359000",
          "132730.359000",
          "132732.859000",
          "132735.359000",
          "132737.875000",
          "132740.859000",
          "132743.359000",
          "132745.859000",
          "132748.359000",
          "132750.859000",
          "132753.859000",
          "132756.359000",
          "132758.859000",
          "132801.359000",
          "132803.859000",
          "132806.859000",
          "132809.359000",
          "132811.859000",
          "132814.359000",
          "132816.859000",
          "132819.859000",
          "132822.359000",
          "132824.859000",
          "132827.359000",
          "132829.859000",
          "132832.359000",
          "132835.359000",
          "132837.859000",
          "132840.359000",
          "132842.859000",
          "132845.859000",
          "132848.359000",
          "132850.859000",
          "132853.359000",
          "132855.859000",
          "132858.859000",
          "132901.359000",
          "132903.859000",
          "132906.359000",
          "132908.859000",
          "132911.859000",
          "132914.359000",
          "132916.859000",
          "132919.359000",
          "132921.859000",
          "132924.859000",
          "132927.359000",
          "132929.859000",
          "132932.359000",
          "132934.859000",
          "132937.859000",
          "132940.359000",
          "132942.859000",
          "132945.359000",
          "132947.859000",
          "132950.859000",
          "132953.359000",
          "132955.859000",
          "132958.359000",
          "133000.859000",
          "133003.859000",
          "133006.359000",
          "133008.859000",
          "133011.359000",
          "133013.859000",
          "133016.859000",
          "133019.359000",
          "133021.859000",
          "133024.359000",
          "133026.859000",
          "133029.859000",
          "133032.359000",
          "133034.859000",
          "133037.359000",
          "133039.859000",
          "133042.859000",
          "133045.359000",
          "133047.859000",
          "133050.359000",
          "133052.859000",
          "133055.859000",
          "133058.359000",
          "133100.859000",
          "133103.359000",
          "133105.859000",
          "133108.859000",
          "133111.359000",
          "133113.859000",
          "133116.359000",
          "133118.859000",
          "133121.859000",
          "133124.359000",
          "133126.859000",
          "133129.359000",
          "133131.859000",
          "133134.859000",
          "133137.359000",
          "133139.859000",
          "133142.359000",
          "133144.859000",
          "133147.859000",
          "133150.359000",
          "133152.859000",
          "133155.359000",
          "133157.859000",
          "133200.859000",
          "133203.359000",
          "133205.859000",
          "133208.359000",
          "133210.859000",
          "133213.859000",
          "133216.359000",
          "133218.859000",
          "133221.359000",
          "133223.859000",
          "133226.859000",
          "133229.359000",
          "133231.859000",
          "133234.359000",
          "133241.750000"
        ],
        "InstanceCreationTime": [
          "132614.375000",
          "132614.859000",
          "132615.359000",
          "132617.359000",
          "132619.859000",
          "132622.359000",
          "132625.359000",
          "132627.859000",
          "132630.359000",
          "132632.859000",
          "132635.859000",
          "132638.359000",
          "132640.859000",
          "132643.359000",
          "132645.859000",
          "132648.359000",
          "132651.359000",
          "132653.859000",
          "132656.359000",
          "132658.859000",
          "132701.859000",
          "132704.359000",
          "132706.859000",
          "132709.359000",
          "132711.859000",
          "132714.859000",
          "132717.359000",
          "132719.859000",
          "132722.359000",
          "132724.859000",
          "132727.359000",
          "132730.359000",
          "132732.859000",
          "132735.359000",
          "132737.875000",
          "132740.859000",
          "132743.359000",
          "132745.859000",
          "132748.359000",
          "132750.859000",
          "132753.859000",
          "132756.359000",
          "132758.859000",
          "132801.359000",
          "132803.859000",
          "132806.859000",
          "132809.359000",
          "132811.859000",
          "132814.359000",
          "132816.859000",
          "132819.859000",
          "132822.359000",
          "132824.859000",
          "132827.359000",
          "132829.859000",
          "132832.359000",
          "132835.359000",
          "132837.859000",
          "132840.359000",
          "132842.859000",
          "132845.859000",
          "132848.359000",
          "132850.859000",
          "132853.359000",
          "132855.859000",
          "132858.859000",
          "132901.359000",
          "132903.859000",
          "132906.359000",
          "132908.859000",
          "132911.859000",
          "132914.359000",
          "132916.859000",
          "132919.359000",
          "132921.859000",
          "132924.859000",
          "132927.359000",
          "132929.859000",
          "132932.359000",
          "132934.859000",
          "132937.859000",
          "132940.359000",
          "132942.859000",
          "132945.359000",
          "132947.859000",
          "132950.859000",
          "132953.359000",
          "132955.859000",
          "132958.359000",
          "133000.859000",
          "133003.859000",
          "133006.359000",
          "133008.859000",
          "133011.359000",
          "133013.859000",
          "133016.859000",
          "133019.359000",
          "133021.859000",
          "133024.359000",
          "133026.859000",
          "133029.859000",
          "133032.359000",
          "133034.859000",
          "133037.359000",
          "133039.859000",
          "133042.859000",
          "133045.359000",
          "133047.859000",
          "133050.359000",
          "133052.859000",
          "133055.859000",
          "133058.359000",
          "133100.859000",
          "133103.359000",
          "133105.859000",
          "133108.859000",
          "133111.359000",
          "133113.859000",
          "133116.359000",
          "133118.859000",
          "133121.859000",
          "133124.359000",
          "133126.859000",
          "133129.359000",
          "133131.859000",
          "133134.859000",
          "133137.359000",
          "133139.859000",
          "133142.359000",
          "133144.859000",
          "133147.859000",
          "133150.359000",
          "133152.859000",
          "133155.359000",
          "133157.859000",
          "133200.859000",
          "133203.359000",
          "133205.859000",
          "133208.359000",
          "133210.859000",
          "133213.859000",
          "133216.359000",
          "133218.859000",
          "133221.359000",
          "133223.859000",
          "133226.859000",
          "133229.359000",
          "133231.859000",
          "133234.359000",
          "133241.750000"
        ],
        "InstanceNumber": [
          1,
          2,
          3,
          4,
          5,
          6,
          7,
          8,
          9,
          10,
          11,
          12,
          13,
          14,
          15,
          16,
          17,
          18,
          19,
          20,
          21,
          22,
          23,
          24,
          25,
          26,
          27,
          28,
          29,
          30,
          31,
          32,
          33,
          34,
          35,
          36,
          37,
          38,
          39,
          40,
          41,
          42,
          43,
          44,
          45,
          46,
          47,
          48,
          49,
          50,
          51,
          52,
          53,
          54,
          55,
          56,
          57,
          58,
          59,
          60,
          61,
          62,
          63,
          64,
          65,
          66,
          67,
          68,
          69,
          70,
          71,
          72,
          73,
          74,
          75,
          76,
          77,
          78,
          79,
          80,
          81,
          82,
          83,
          84,
          85,
          86,
          87,
          88,
          89,
          90,
          91,
          92,
          93,
          94,
          95,
          96,
          97,
          98,
          99,
          100,
          101,
          102,
          103,
          104,
          105,
          106,
          107,
          108,
          109,
          110,
          111,
          112,
          113,
          114,
          115,
          116,
          117,
          118,
          119,
          120,
          121,
          122,
          123,
          124,
          125,
          126,
          127,
          128,
          129,
          130,
          131,
          132,
          133,
          134,
          135,
          136,
          137,
          138,
          139,
          140,
          141,
          142,
          143,
          144,
          145,
          146,
          147,
          148,
          149,
          150
        ],
        "WindowCenter": [
          898.0,
          897.0,
          896.0,
          896.0,
          896.0,
          896.0,
          896.0,
          896.0,
          896.0,
          896.0,
          897.0,
          896.0,
          897.0,
          897.0,
          898.0,
          898.0,
          898.0,
          898.0,
          898.0,
          897.0,
          896.0,
          897.0,
          897.0,
          898.0,
          899.0,
          898.0,
          897.0,
          897.0,
          896.0,
          896.0,
          895.0,
          895.0,
          894.0,
          894.0,
          893.0,
          893.0,
          893.0,
          893.0,
          895.0,
          898.0,
          897.0,
          896.0,
          896.0,
          897.0,
          896.0,
          897.0,
          896.0,
          897.0,
          897.0,
          898.0,
          898.0,
          899.0,
          899.0,
          898.0,
          898.0,
          898.0,
          897.0,
          897.0,
          896.0,
          896.0,
          896.0,
          897.0,
          899.0,
          899.0,
          899.0,
          898.0,
          898.0,
          898.0,
          897.0,
          898.0,
          900.0,
          900.0,
          900.0,
          900.0,
          898.0,
          898.0,
          898.0,
          898.0,
          897.0,
          896.0,
          895.0,
          896.0,
          896.0,
          897.0,
          896.0,
          896.0,
          897.0,
          899.0,
          899.0,
          899.0,
          898.0,
          897.0,
          897.0,
          898.0,
          898.0,
          897.0,
          898.0,
          900.0,
          899.0,
          898.0,
          897.0,
          897.0,
          896.0,
          897.0,
          898.0,
          898.0,
          899.0,
          899.0,
          898.0,
          898.0,
          898.0,
          898.0,
          898.0,
          899.0,
          900.0,
          899.0,
          898.0,
          897.0,
          896.0,
          897.0,
          898.0,
          899.0,
          898.0,
          896.0,
          897.0,
          897.0,
          898.0,
          900.0,
          900.0,
          899.0,
          898.0,
          897.0,
          897.0,
          898.0,
          896.0,
          896.0,
          896.0,
          896.0,
          896.0,
          896.0,
          897.0,
          901.0,
          899.0,
          897.0,
          896.0,
          895.0,
          895.0,
          895.0,
          895.0,
          896.0
        ],
        "WindowWidth": [
          2093.0,
          2088.0,
          2085.0,
          2085.0,
          2085.0,
          2084.0,
          2086.0,
          2088.0,
          2086.0,
          2086.0,
          2087.0,
          2086.0,
          2088.0,
          2091.0,
          2094.0,
          2094.0,
          2093.0,
          2092.0,
          2093.0,
          2089.0,
          2085.0,
          2089.0,
          2090.0,
          2093.0,
          2095.0,
          2094.0,
          2092.0,
          2089.0,
          2086.0,
          2085.0,
          2083.0,
          2080.0,
          2078.0,
          2078.0,
          2076.0,
          2075.0,
          2075.0,
          2074.0,
          2084.0,
          2091.0,
          2088.0,
          2084.0,
          2086.0,
          2088.0,
          2087.0,
          2088.0,
          2086.0,
          2088.0,
          2090.0,
          2091.0,
          2093.0,
          2096.0,
          2095.0,
          2093.0,
          2092.0,
          2093.0,
          2090.0,
          2087.0,
          2085.0,
          2085.0,
          2086.0,
          2091.0,
          2097.0,
          2097.0,
          2093.0,
          2093.0,
          2093.0,
          2091.0,
          2088.0,
          2093.0,
          2098.0,
          2098.0,
          2099.0,
          2099.0,
          2092.0,
          2091.0,
          2090.0,
          2091.0,
          2089.0,
          2084.0,
          2081.0,
          2085.0,
          2085.0,
          2087.0,
          2086.0,
          2085.0,
          2090.0,
          2095.0,
          2094.0,
          2094.0,
          2092.0,
          2089.0,
          2089.0,
          2092.0,
          2090.0,
          2089.0,
          2092.0,
          2100.0,
          2095.0,
          2091.0,
          2087.0,
          2087.0,
          2086.0,
          2088.0,
          2091.0,
          2093.0,
          2096.0,
          2096.0,
          2094.0,
          2093.0,
          2094.0,
          2093.0,
          2093.0,
          2095.0,
          2101.0,
          2095.0,
          2091.0,
          2088.0,
          2086.0,
          2088.0,
          2092.0,
          2095.0,
          2089.0,
          2087.0,
          2090.0,
          2090.0,
          2093.0,
          2099.0,
          2099.0,
          2097.0,
          2093.0,
          2089.0,
          2090.0,
          2090.0,
          2086.0,
          2085.0,
          2083.0,
          2084.0,
          2086.0,
          2086.0,
          2091.0,
          2102.0,
          2094.0,
          2089.0,
          2086.0,
          2081.0,
          2081.0,
          2081.0,
          2083.0,
          2084.0
        ]
      },
      "slices": {}
    }
  },
  "dummy_trs": 0,
  "dvars_nstd": 69.59030837510065,
  "dvars_std": 1.043392799261745,
  "dvars_vstd": 1.0070673834899329,
  "efc": 0.5604332942745013,
  "fber": 369.07623291015625,
  "fd_mean": 0.06866709579286898,
  "fd_num": 5,
  "fd_perc": 3.3333333333333335,
  "fwhm_avg": 3.0552349716763807,
  "fwhm_x": 2.992056373263352,
  "fwhm_y": 2.8672006505991825,
  "fwhm_z": 3.306447891166607,
  "gcor": 0.00369454,
  "gsr_x": -0.008373674936592579,
  "gsr_y": 0.05497489869594574,
  "provenance": {
    "md5sum": "04530c65c8e6abbb2aca73838bd19b70",
    "settings": {
      "fd_thres": 0.2,
      "testing": false
    },
    "software": "mriqc",
    "version": "22.0.6",
    "webapi_port": null,
    "webapi_url": "https://mriqc.nimh.nih.gov/api/v1"
  },
  "size_t": 150,
  "size_x": 188,
  "size_y": 188,
  "size_z": 46,
  "snr": 2.0845792417819125,
  "spacing_tr": 2.5999999046325684,
  "spacing_x": 1.0957447290420532,
  "spacing_y": 1.0957447290420532,
  "spacing_z": 1.099999189376831,
  "summary_bg_k": 55.863533429775316,
  "summary_bg_mad": 26.647301083805896,
  "summary_bg_mean": 88.15543365478516,
  "summary_bg_median": 50.62666702270508,
  "summary_bg_n": 1045560.0,
  "summary_bg_p05": 30.65999984741211,
