{
  "aor": 0.0016992666666666668,
  "aqi": 0.013760283333333335,
  "bids_meta": {
    "AcquisitionMatrixPE": 188,
    "AcquisitionNumber": 1,
    "AcquisitionTime": "10:16:0.192500",
    "BandwidthPerPixelPhaseEncode": 19.46,
    "BaseResolution": 188,
    "CogAtlasID": "TODO",
    "ConversionSoftware": "dcm2niix",
    "ConversionSoftwareVersion": "v1.0.20180606 GCC4.8.5",
    "DelayTime": 1.2,
    "DerivedVendorReportedEchoSpacing": 0.000820013,
    "DeviceSerialNumber": "18930",
    "DwellTime": 1.9e-06,
    "EchoTime": 0.02,
    "EffectiveEchoSpacing": 0.000273338,
    "FlipAngle": 80,
    "ImageComments": "Unaliased_MB2_PE2",
    "ImageOrientationPatientDICOM": [
      0.986204,
      0.163009,
      -0.0287939,
      -0.0693374,
      0.248847,
      -0.966058
    ],
    "ImageType": [
      "ORIGINAL",
      "PRIMARY",
      "M",
      "MB",
      "ND",
      "MOSAIC"
    ],
    "InPlanePhaseEncodingDirectionDICOM": "COL",
    "InstitutionAddress": "Oxfordlaan_55_Maastricht_22AAA2_Limburg_NL_6229_EV",
    "InstitutionName": "Scannexus",
    "InstitutionalDepartmentName": "MRI_7T",
    "MRAcquisitionType": "2D",
    "MagneticFieldStrength": 6.98,
    "Manufacturer": "Siemens",
    "ManufacturersModelName": "Investigational_Device_7T",
    "Modality": "MR",
    "MultibandAccelerationFactor": 2,
    "ParallelReductionFactorInPlane": 3,
    "PartialFourier": 0.75,
    "PatientPosition": "HFS",
    "PercentPhaseFOV": 100,
    "PhaseEncodingDirection": "j",
    "PhaseEncodingSteps": 141,
    "PhaseResolution": 1,
    "PixelBandwidth": 1400,
    "ProcedureStepDescription": "FeDem_Faruk",
    "ProtocolName": "cmrr_mbep2d_bold_AP_run12",
    "PulseSequenceDetails": "%CustomerSeq%_cmrr_mbep2d_bold",
    "ReceiveCoilName": "32Ch_Head_7T",
    "ReconMatrixPE": 188,
    "RepetitionTime": 2.6,
    "SAR": 0.0448998,
    "ScanOptions": "PFP_FS",
    "ScanningSequence": "EP",
    "SequenceName": "epfid2d1_188",
    "SequenceVariant": "SK_SS",
    "SeriesDescription": "cmrr_mbep2d_bold_AP_run12",
    "SeriesNumber": 23,
    "ShimSetting": [
      33,
      -58,
      487,
      457,
      -151,
      72,
      370,
      98
    ],
    "SliceThickness": 1.1,
    "SliceTiming": [
      0,
      0.7325,
      0.06,
      0.795,
      0.1225,
      0.855,
      0.1825,
      0.915,
      0.245,
      0.9775,
      0.305,
      1.0375,
      0.365,
      1.1,
      0.4275,
      1.16,
      0.4875,
      1.2225,
      0.55,
      1.2825,
      0.61,
      1.345,
      0.6725,
      0,
      0.7325,
      0.06,
      0.795,
      0.1225,
      0.855,
      0.1825,
      0.915,
      0.245,
      0.9775,
      0.305,
      1.0375,
      0.365,
      1.1,
      0.4275,
      1.16,
      0.4875,
      1.2225,
      0.55,
      1.2825,
      0.61,
      1.345,
      0.6725
    ],
    "SoftwareVersions": "syngo_MR_B17",
    "SpacingBetweenSlices": 1.1,
    "StationName": "MRC18930",
    "TaskName": "auditory",
    "TotalReadoutTime": 0.0511141,
    "TxRefAmp": 181,
    "dataset": "ds001942",
    "dcmmeta_affine": [
      [
        -1.0806282758712769,
        -0.07597606629133224,
        0.1653413474559784,
        105.7924575805664
      ],
      [
        -0.1786157190799713,
        0.2726731300354004,
        -1.0501993894577026,
        38.38575744628906
      ],
      [
        -0.031550802290439606,
        1.0585525035858154,
        0.2823885679244995,
        -104.43102264404297
      ],
      [
        0.0,
        0.0,
        0.0,
        1.0
      ]
    ],
    "dcmmeta_reorient_transform": [
      [
        0.0,
        -1.0,
        0.0,
        187.0
      ],
      [
        1.0,
        0.0,
        0.0,
        0.0
      ],
      [
        0.0,
        0.0,
        1.0,
        0.0
      ],
      [
        0.0,
        0.0,
        0.0,
        1.0
      ]
    ],
    "dcmmeta_shape": [
      188,
      188,
      46,
      150
    ],
    "dcmmeta_slice_dim": 2,
    "dcmmeta_version": 0.6,
    "global": {
      "const": {
        "AcquisitionMatrix": [
          188,
          0,
          0,
          188
        ],
        "AngioFlag": "N",
        "BitsAllocated": 16,
        "BitsStored": 12,
        "Columns": 1316,
        "EchoNumbers": 1,
        "EchoTime": 20.0,
        "EchoTrainLength": 1,
        "FlipAngle": 80.0,
        "HighBit": 11,
        "ImageOrientationPatient": [
          0.98620440882072,
          0.16300850687845,
          -0.0287939352612,
          -0.0693373782187,
          0.24884730227185,
          -0.9660576318905
        ],
        "ImagePositionPatient": [
          -658.20878620656,
          -343.90253067471,
          708.33660116918
        ],
        "ImageType": [
          "ORIGINAL",
          "PRIMARY",
          "M",
          "MB",
          "ND",
          "MOSAIC"
        ],
        "ImagedNucleus": "1H",
        "ImagingFrequency": 297.205674,
        "InPlanePhaseEncodingDirection": "COL",
        "LargestImagePixelValue": 4095,
        "MRAcquisitionType": "2D",
        "MagneticFieldStrength": 6.98,
        "Manufacturer": "SIEMENS",
        "ManufacturerModelName": "Investigational_Device_7T",
        "Modality": "MR",
        "NumberOfAverages": 1.0,
        "NumberOfPhaseEncodingSteps": 141,
        "PercentPhaseFieldOfView": 100.0,
        "PercentSampling": 100.0,
        "PerformedProcedureStepStartTime": "082549.906000",
        "PhotometricInterpretation": "MONOCHROME2",
        "PixelBandwidth": 1400.0,
        "PixelRepresentation": 0,
        "PixelSpacing": [
          1.0957447290421,
          1.0957447290421
        ],
        "ProtocolName": "cmrr_mbep2d_bold_AP_run12",
        "RepetitionTime": 2600.0,
        "Rows": 1316,
        "SAR": 0.04489978559192,
        "SamplesPerPixel": 1,
        "ScanOptions": [
          "PFP",
          "FS"
        ],
        "ScanningSequence": "EP",
        "SequenceName": "epfid2d1_188",
        "SequenceVariant": [
          "SK",
          "SS"
        ],
        "SeriesDescription": "cmrr_mbep2d_bold_AP_run12",
        "SeriesNumber": 23,
        "SeriesTime": "101610.093000",
        "SliceLocation": -47.555418439178,
        "SliceThickness": 1.1000000238419,
        "SmallestImagePixelValue": 0,
        "SoftwareVersions": "syngo MR B17",
        "SpacingBetweenSlices": 1.0999999671714,
        "SpecificCharacterSet": "ISO_IR 100",
        "StudyID": "1",
        "StudyTime": "082549.843000",
        "TransmitCoilName": "32Ch_Head_7T",
        "VariableFlipAngleFlag": "N",
        "WindowCenterWidthExplanation": "Algo1",
        "dBdt": 0.0
      },
      "slices": {}
    },
    "modality": "bold",
    "run_id": 12,
    "session_id": "SES02",
    "subject_id": "S03",
    "task_id": "auditory",
    "time": {
      "samples": {
        "AcquisitionNumber": [
          1,
          2,
          3,
          4,
          5,
          6,
          7,
          8,
          9,
          10,
          11,
          12,
          13,
          14,
          15,
          16,
          17,
          18,
          19,
          20,
          21,
          22,
          23,
          24,
          25,
          26,
          27,
          28,
          29,
          30,
          31,
          32,
          33,
          34,
          35,
          36,
          37,
          38,
          39,
          40,
          41,
          42,
          43,
          44,
          45,
          46,
          47,
          48,
          49,
          50,
          51,
          52,
          53,
          54,
          55,
          56,
          57,
          58,
          59,
          60,
          61,
          62,
          63,
          64,
          65,
          66,
          67,
          68,
          69,
          70,
          71,
          72,
          73,
          74,
          75,
          76,
          77,
          78,
          79,
          80,
          81,
          82,
          83,
          84,
          85,
          86,
          87,
          88,
          89,
          90,
          91,
          92,
          93,
          94,
          95,
          96,
          97,
          98,
          99,
          100,
          101,
          102,
          103,
          104,
          105,
          106,
          107,
          108,
          109,
          110,
          111,
          112,
          113,
          114,
          115,
          116,
          117,
          118,
          119,
          120,
          121,
          122,
          123,
          124,
          125,
          126,
          127,
          128,
          129,
          130,
          131,
          132,
          133,
          134,
          135,
          136,
          137,
          138,
          139,
          140,
          141,
          142,
          143,
          144,
          145,
          146,
          147,
          148,
          149,
          150
        ],
        "AcquisitionTime": [
          "101600.192500",
          "101602.802500",
          "101605.412500",
          "101608.022500",
          "101610.632500",
          "101613.245000",
          "101615.855000",
          "101618.465000",
          "101621.075000",
          "101623.685000",
          "101626.297500",
          "101628.907500",
          "101631.517500",
          "101634.127500",
          "101636.737500",
          "101639.347500",
          "101641.960000",
          "101644.570000",
          "101647.180000",
          "101649.790000",
          "101652.400000",
          "101655.010000",
          "101657.622500",
          "101700.232500",
          "101702.842500",
          "101705.452500",
          "101708.062500",
          "101710.675000",
          "101713.285000",
          "101715.895000",
          "101718.505000",
          "101721.115000",
          "101723.725000",
          "101726.337500",
          "101728.947500",
          "101731.557500",
          "101734.167500",
          "101736.777500",
          "101739.387500",
          "101742.000000",
          "101744.610000",
          "101747.220000",
          "101749.830000",
          "101752.440000",
          "101755.052500",
          "101757.662500",
          "101800.272500",
          "101802.882500",
          "101805.492500",
          "101808.102500",
          "101810.715000",
          "101813.325000",
          "101815.935000",
          "101818.545000",
          "101821.155000",
          "101823.767500",
          "101826.377500",
          "101828.987500",
          "101831.597500",
          "101834.207500",
          "101836.817500",
          "101839.430000",
          "101842.040000",
          "101844.650000",
          "101847.260000",
          "101849.870000",
          "101852.480000",
          "101855.092500",
          "101857.702500",
          "101900.312500",
          "101902.922500",
          "101905.532500",
          "101908.145000",
          "101910.755000",
          "101913.365000",
          "101915.975000",
          "101918.585000",
          "101921.195000",
          "101923.807500",
          "101926.417500",
          "101929.027500",
          "101931.637500",
          "101934.247500",
          "101936.857500",
          "101939.470000",
          "101942.080000",
          "101944.690000",
          "101947.300000",
          "101949.910000",
          "101952.522500",
          "101955.132500",
          "101957.742500",
          "102000.352500",
          "102002.962500",
          "102005.572500",
          "102008.185000",
          "102010.795000",
          "102013.405000",
          "102016.015000",
          "102018.625000",
          "102021.235000",
          "102023.847500",
          "102026.457500",
          "102029.067500",
          "102031.677500",
          "102034.287500",
          "102036.900000",
          "102039.510000",
          "102042.120000",
          "102044.730000",
          "102047.340000",
          "102049.950000",
          "102052.562500",
          "102055.172500",
          "102057.782500",
          "102100.392500",
          "102103.002500",
          "102105.612500",
          "102108.225000",
          "102110.835000",
          "102113.445000",
          "102116.055000",
          "102118.665000",
          "102121.277500",
          "102123.887500",
          "102126.497500",
          "102129.107500",
          "102131.717500",
          "102134.327500",
          "102136.940000",
          "102139.550000",
          "102142.160000",
          "102144.770000",
          "102147.380000",
          "102149.990000",
          "102152.602500",
          "102155.212500",
          "102157.822500",
          "102200.432500",
          "102203.042500",
          "102205.655000",
          "102208.265000",
          "102210.875000",
          "102213.485000",
          "102216.095000",
          "102218.705000",
          "102221.317500",
          "102223.927500",
          "102226.537500",
          "102229.147500"
        ],
        "ContentTime": [
          "101610.093000",
          "101610.593000",
          "101610.593000",
          "101613.093000",
          "101615.593000",
          "101618.093000",
          "101621.093000",
          "101623.593000",
          "101626.093000",
          "101628.593000",
          "101631.093000",
          "101634.093000",
          "101636.593000",
          "101639.093000",
          "101641.593000",
          "101644.093000",
          "101647.093000",
          "101649.593000",
          "101652.093000",
          "101654.593000",
          "101657.093000",
          "101700.093000",
          "101702.593000",
          "101705.093000",
          "101707.593000",
          "101710.093000",
          "101713.093000",
          "101715.593000",
          "101718.093000",
          "101720.593000",
          "101723.093000",
          "101726.093000",
          "101728.593000",
          "101731.093000",
          "101733.593000",
          "101736.093000",
          "101739.093000",
          "101741.593000",
          "101744.093000",
          "101746.593000",
          "101749.093000",
          "101752.093000",
          "101754.593000",
          "101757.093000",
          "101759.593000",
          "101802.093000",
          "101805.093000",
          "101807.593000",
          "101810.093000",
          "101812.593000",
          "101815.093000",
          "101818.093000",
          "101820.593000",
          "101823.093000",
          "101825.593000",
          "101828.093000",
          "101831.093000",
          "101833.593000",
          "101836.093000",
          "101838.593000",
          "101841.093000",
          "101844.093000",
          "101846.593000",
          "101849.093000",
          "101851.593000",
          "101854.093000",
          "101857.093000",
          "101859.593000",
          "101902.093000",
          "101904.593000",
          "101907.093000",
          "101910.093000",
          "101912.593000",
          "101915.093000",
          "101917.593000",
          "101920.093000",
          "101923.093000",
          "101925.593000",
          "101928.093000",
          "101930.593000",
          "101933.093000",
          "101936.093000",
          "101938.593000",
          "101941.093000",
          "101943.593000",
          "101946.093000",
          "101949.093000",
          "101951.593000",
          "101954.093000",
          "101956.593000",
          "101959.093000",
          "102002.093000",
          "102004.593000",
          "102007.093000",
          "102009.593000",
          "102012.093000",
          "102015.093000",
          "102017.593000",
          "102020.093000",
          "102022.593000",
          "102025.093000",
          "102028.093000",
          "102030.593000",
          "102033.093000",
          "102035.593000",
          "102038.093000",
          "102041.093000",
          "102043.593000",
          "102046.093000",
          "102048.593000",
          "102051.093000",
          "102054.093000",
          "102056.593000",
          "102059.093000",
          "102101.593000",
          "102104.093000",
          "102107.093000",
          "102109.593000",
          "102112.093000",
          "102114.593000",
          "102117.093000",
          "102120.093000",
          "102122.593000",
          "102125.093000",
          "102127.593000",
          "102130.093000",
          "102133.093000",
          "102135.593000",
          "102138.093000",
          "102140.593000",
          "102143.093000",
          "102146.093000",
          "102148.593000",
          "102151.093000",
          "102153.593000",
          "102156.093000",
          "102159.093000",
          "102201.593000",
          "102204.093000",
          "102206.593000",
          "102209.093000",
          "102212.093000",
          "102214.593000",
          "102217.093000",
          "102219.593000",
          "102222.093000",
          "102225.093000",
          "102227.593000",
          "102230.093000",
          "102237.437000"
        ],
        "InstanceCreationTime": [
          "101610.093000",
          "101610.593000",
          "101610.593000",
          "101613.093000",
          "101615.593000",
          "101618.093000",
          "101621.093000",
          "101623.593000",
          "101626.093000",
          "101628.593000",
          "101631.093000",
          "101634.093000",
          "101636.593000",
          "101639.093000",
          "101641.593000",
          "101644.093000",
          "101647.093000",
          "101649.593000",
          "101652.093000",
          "101654.593000",
          "101657.093000",
          "101700.093000",
          "101702.593000",
          "101705.093000",
          "101707.593000",
          "101710.093000",
          "101713.093000",
          "101715.593000",
          "101718.093000",
          "101720.593000",
          "101723.093000",
          "101726.093000",
          "101728.593000",
          "101731.093000",
          "101733.593000",
          "101736.093000",
          "101739.093000",
          "101741.593000",
          "101744.093000",
          "101746.593000",
          "101749.093000",
          "101752.093000",
          "101754.593000",
          "101757.093000",
          "101759.593000",
          "101802.093000",
          "101805.093000",
          "101807.593000",
          "101810.093000",
          "101812.593000",
          "101815.093000",
          "101818.093000",
          "101820.593000",
          "101823.093000",
          "101825.593000",
          "101828.093000",
          "101831.093000",
          "101833.593000",
          "101836.093000",
          "101838.593000",
          "101841.093000",
          "101844.093000",
          "101846.593000",
          "101849.093000",
          "101851.593000",
          "101854.093000",
          "101857.093000",
          "101859.593000",
          "101902.093000",
          "101904.593000",
          "101907.093000",
          "101910.093000",
          "101912.593000",
          "101915.093000",
          "101917.593000",
          "101920.093000",
          "101923.093000",
          "101925.593000",
          "101928.093000",
          "101930.593000",
          "101933.093000",
          "101936.093000",
          "101938.593000",
          "101941.093000",
          "101943.593000",
          "101946.093000",
          "101949.093000",
          "101951.593000",
          "101954.093000",
          "101956.593000",
          "101959.093000",
          "102002.093000",
          "102004.593000",
          "102007.093000",
          "102009.593000",
          "102012.093000",
          "102015.093000",
          "102017.593000",
          "102020.093000",
          "102022.593000",
          "102025.093000",
          "102028.093000",
          "102030.593000",
          "102033.093000",
          "102035.593000",
          "102038.093000",
          "102041.093000",
          "102043.593000",
          "102046.093000",
          "102048.593000",
          "102051.093000",
          "102054.093000",
          "102056.593000",
          "102059.093000",
          "102101.593000",
          "102104.093000",
          "102107.093000",
          "102109.593000",
          "102112.093000",
          "102114.593000",
          "102117.093000",
          "102120.093000",
          "102122.593000",
          "102125.093000",
          "102127.593000",
          "102130.093000",
          "102133.093000",
          "102135.593000",
          "102138.093000",
          "102140.593000",
          "102143.093000",
          "102146.093000",
          "102148.593000",
          "102151.093000",
          "102153.593000",
          "102156.093000",
          "102159.093000",
          "102201.593000",
          "102204.093000",
          "102206.593000",
          "102209.093000",
          "102212.093000",
          "102214.593000",
          "102217.093000",
          "102219.593000",
          "102222.093000",
          "102225.093000",
          "102227.593000",
          "102230.093000",
          "102237.437000"
        ],
        "InstanceNumber": [
          1,
          2,
          3,
          4,
          5,
          6,
          7,
          8,
          9,
          10,
          11,
          12,
          13,
          14,
          15,
          16,
          17,
          18,
          19,
          20,
          21,
          22,
          23,
          24,
          25,
          26,
          27,
          28,
          29,
          30,
          31,
          32,
          33,
          34,
          35,
          36,
          37,
          38,
          39,
          40,
          41,
          42,
          43,
          44,
          45,
          46,
          47,
          48,
          49,
          50,
          51,
          52,
          53,
          54,
          55,
          56,
          57,
          58,
          59,
          60,
          61,
          62,
          63,
          64,
          65,
          66,
          67,
          68,
          69,
          70,
          71,
          72,
          73,
          74,
          75,
          76,
          77,
          78,
          79,
          80,
          81,
          82,
          83,
          84,
          85,
          86,
          87,
          88,
          89,
          90,
          91,
          92,
          93,
          94,
          95,
          96,
          97,
          98,
          99,
          100,
          101,
          102,
          103,
          104,
          105,
          106,
          107,
          108,
          109,
          110,
          111,
          112,
          113,
          114,
          115,
          116,
          117,
          118,
          119,
          120,
          121,
          122,
          123,
          124,
          125,
          126,
          127,
          128,
          129,
          130,
          131,
          132,
          133,
          134,
          135,
          136,
          137,
          138,
          139,
          140,
          141,
          142,
          143,
          144,
          145,
          146,
          147,
          148,
          149,
          150
        ],
        "WindowCenter": [
          825.0,
          821.0,
          821.0,
          822.0,
          822.0,
          822.0,
          823.0,
          822.0,
          822.0,
          822.0,
          821.0,
          822.0,
          822.0,
          821.0,
          822.0,
          822.0,
          821.0,
          821.0,
          821.0,
          823.0,
          821.0,
          820.0,
          819.0,
          820.0,
          819.0,
          821.0,
          822.0,
          822.0,
          823.0,
          823.0,
          823.0,
          822.0,
          820.0,
          821.0,
          822.0,
          821.0,
          823.0,
          822.0,
          819.0,
          820.0,
          821.0,
          822.0,
          822.0,
          821.0,
          820.0,
          822.0,
          823.0,
          822.0,
          822.0,
          824.0,
          821.0,
          822.0,
          822.0,
          822.0,
          824.0,
          823.0,
          823.0,
          822.0,
          824.0,
          824.0,
          824.0,
          825.0,
          825.0,
          824.0,
          824.0,
          824.0,
          822.0,
          823.0,
          823.0,
          823.0,
          821.0,
          821.0,
          821.0,
          821.0,
          822.0,
          822.0,
          823.0,
          823.0,
          824.0,
          824.0,
          822.0,
          822.0,
          821.0,
          820.0,
          822.0,
          822.0,
          822.0,
          823.0,
          823.0,
          822.0,
          822.0,
          822.0,
          823.0,
          821.0,
          820.0,
          822.0,
          823.0,
          823.0,
          821.0,
          822.0,
          821.0,
          823.0,
          822.0,
          820.0,
          821.0,
          824.0,
          823.0,
          824.0,
          826.0,
          824.0,
          823.0,
          821.0,
          822.0,
          823.0,
          823.0,
          823.0,
          822.0,
          823.0,
          823.0,
          823.0,
          823.0,
          823.0,
          821.0,
          822.0,
          823.0,
          823.0,
          823.0,
          821.0,
          823.0,
          823.0,
          821.0,
          820.0,
          821.0,
          822.0,
          822.0,
          821.0,
          821.0,
          822.0,
          821.0,
          820.0,
          822.0,
          821.0,
          821.0,
          820.0,
          821.0,
          821.0,
          820.0,
          821.0,
          820.0,
          820.0
        ],
        "WindowWidth": [
          1860.0,
          1848.0,
          1847.0,
          1851.0,
          1852.0,
          1850.0,
          1854.0,
          1851.0,
          1851.0,
          1850.0,
          1849.0,
          1851.0,
          1851.0,
          1847.0,
          1852.0,
          1851.0,
          1848.0,
          1847.0,
          1849.0,
          1855.0,
          1847.0,
          1843.0,
          1843.0,
          1846.0,
          1843.0,
          1847.0,
          1852.0,
          1852.0,
          1853.0,
          1854.0,
          1852.0,
          1850.0,
          1846.0,
          1849.0,
          1852.0,
          1848.0,
          1853.0,
          1850.0,
          1842.0,
          1846.0,
          1848.0,
          1850.0,
          1850.0,
          1848.0,
          1845.0,
          1852.0,
          1856.0,
          1852.0,
          1851.0,
          1857.0,
          1849.0,
          1851.0,
          1851.0,
          1851.0,
          1857.0,
          1854.0,
          1854.0,
          1853.0,
          1858.0,
          1859.0,
          1860.0,
          1862.0,
          1862.0,
          1857.0,
          1858.0,
          1859.0,
          1852.0,
          1854.0,
          1853.0,
          1854.0,
          1847.0,
          1849.0,
          1846.0,
          1847.0,
          1850.0,
          1849.0,
          1853.0,
          1854.0,
          1858.0,
          1856.0,
          1851.0,
          1850.0,
          1847.0,
          1846.0,
          1850.0,
          1851.0,
          1850.0,
          1853.0,
          1853.0,
          1851.0,
          1850.0,
          1851.0,
          1854.0,
          1849.0,
          1846.0,
          1850.0,
          1856.0,
          1855.0,
          1848.0,
          1849.0,
          1847.0,
          1853.0,
          1850.0,
          1846.0,
          1848.0,
          1858.0,
          1855.0,
          1858.0,
          1864.0,
          1859.0,
          1854.0,
          1847.0,
          1850.0,
          1853.0,
          1856.0,
          1854.0,
          1851.0,
          1853.0,
          1855.0,
          1853.0,
          1853.0,
          1852.0,
          1849.0,
          1853.0,
          1854.0,
          1854.0,
          1854.0,
          1848.0,
          1853.0,
          1853.0,
          1849.0,
          1846.0,
          1848.0,
          1852.0,
          1852.0,
          1849.0,
          1848.0,
          1850.0,
          1847.0,
          1845.0,
          1851.0,
          1846.0,
          1848.0,
          1846.0,
          1847.0,
          1847.0,
          1845.0,
          1847.0,
          1843.0,
          1844.0
        ]
      },
      "slices": {}
    }
  },
  "dummy_trs": 0,
  "dvars_nstd": 70.63804424268459,
  "dvars_std": 1.08715603033557,
  "dvars_vstd": 1.0319946316778525,
  "efc": 0.5572335773394448,
  "fber": 385.9990539550781,
  "fd_mean": 0.08749860251877453,
  "fd_num": 4,
  "fd_perc": 2.6666666666666665,
  "fwhm_avg": 2.8462268591521394,
  "fwhm_x": 2.7270767732667025,
  "fwhm_y": 2.656531145301347,
  "fwhm_z": 3.155072658888369,
  "gcor": 0.00383386,
  "gsr_x": -0.011662566103041172,
  "gsr_y": 0.05914279446005821,
  "provenance": {
    "md5sum": "56cb200b17e4f117766a91e6917bff8b",
    "settings": {
      "fd_thres": 0.2,
      "testing": false
    },
    "software": "mriqc",
    "version": "22.0.6",
    "webapi_port": null,
    "webapi_url": "https://mriqc.nimh.nih.gov/api/v1"
  },
  "size_t": 150,
  "size_x": 188,
  "size_y": 188,
  "size_z": 46,
  "snr": 2.357590718647094,
  "spacing_tr": 2.5999999046325684,
  "spacing_x": 1.0957447290420532,
  "spacing_y": 1.0957447290420532,
  "spacing_z": 1.100000023841858,
  "summary_bg_k": 46.938385922051175,
  "summary_bg_mad": 23.365811302989005,
  "summary_bg_mean": 76.39148712158203,
  "summary_bg_median": 44.11333465576172,
  "summary_bg_n": 1076569.0,
  "summary_bg_p05": 26.566667556762695,
