{
  "aor": 0.0007974,
  "aqi": 0.014213316666666665,
  "bids_meta": {
    "AcquisitionMatrixPE": 188,
    "AcquisitionNumber": 1,
    "AcquisitionTime": "09:03:42.302500",
    "BandwidthPerPixelPhaseEncode": 19.46,
    "BaseResolution": 188,
    "CogAtlasID": "TODO",
    "ConversionSoftware": "dcm2niix",
    "ConversionSoftwareVersion": "v1.0.20180606 GCC4.8.5",
    "DelayTime": 1.2,
    "DerivedVendorReportedEchoSpacing": 0.000820013,
    "DeviceSerialNumber": "18930",
    "DwellTime": 1.9e-06,
    "EchoTime": 0.02,
    "EffectiveEchoSpacing": 0.000273338,
    "FlipAngle": 80,
    "ImageComments": "Unaliased_MB2_PE2",
    "ImageOrientationPatientDICOM": [
      0.986204,
      0.163009,
      -0.0287939,
      -0.0693374,
      0.248847,
      -0.966058
    ],
    "ImageType": [
      "ORIGINAL",
      "PRIMARY",
      "M",
      "MB",
      "ND",
      "MOSAIC"
    ],
    "InPlanePhaseEncodingDirectionDICOM": "COL",
    "InstitutionAddress": "Oxfordlaan_55_Maastricht_22AAA2_Limburg_NL_6229_EV",
    "InstitutionName": "Scannexus",
    "InstitutionalDepartmentName": "MRI_7T",
    "MRAcquisitionType": "2D",
    "MagneticFieldStrength": 6.98,
    "Manufacturer": "Siemens",
    "ManufacturersModelName": "Investigational_Device_7T",
    "Modality": "MR",
    "MultibandAccelerationFactor": 2,
    "ParallelReductionFactorInPlane": 3,
    "PartialFourier": 0.75,
    "PatientPosition": "HFS",
    "PercentPhaseFOV": 100,
    "PhaseEncodingDirection": "j",
    "PhaseEncodingSteps": 141,
    "PhaseResolution": 1,
    "PixelBandwidth": 1400,
    "ProcedureStepDescription": "FeDem_Faruk",
    "ProtocolName": "cmrr_mbep2d_bold_AP_run3",
    "PulseSequenceDetails": "%CustomerSeq%_cmrr_mbep2d_bold",
    "ReceiveCoilName": "32Ch_Head_7T",
    "ReconMatrixPE": 188,
    "RepetitionTime": 2.6,
    "SAR": 0.0450571,
    "ScanOptions": "PFP_FS",
    "ScanningSequence": "EP",
    "SequenceName": "epfid2d1_188",
    "SequenceVariant": "SK_SS",
    "SeriesDescription": "cmrr_mbep2d_bold_AP_run3",
    "SeriesNumber": 12,
    "ShimSetting": [
      33,
      -58,
      487,
      457,
      -151,
      72,
      370,
      98
    ],
    "SliceThickness": 1.1,
    "SliceTiming": [
      0,
      0.7325,
      0.06,
      0.7925,
      0.1225,
      0.855,
      0.1825,
      0.915,
      0.2425,
      0.9775,
      0.305,
      1.0375,
      0.365,
      1.1,
      0.4275,
      1.16,
      0.4875,
      1.2225,
      0.55,
      1.2825,
      0.61,
      1.3425,
      0.6725,
      0,
      0.7325,
      0.06,
      0.7925,
      0.1225,
      0.855,
      0.1825,
      0.915,
      0.2425,
      0.9775,
      0.305,
      1.0375,
      0.365,
      1.1,
      0.4275,
      1.16,
      0.4875,
      1.2225,
      0.55,
      1.2825,
      0.61,
      1.3425,
      0.6725
    ],
    "SoftwareVersions": "syngo_MR_B17",
    "SpacingBetweenSlices": 1.1,
    "StationName": "MRC18930",
    "TaskName": "auditory",
    "TotalReadoutTime": 0.0511141,
    "TxRefAmp": 181,
    "dataset": "ds001942",
    "dcmmeta_affine": [
      [
        -1.0806282758712769,
        -0.07597606629133224,
        0.1653413474559784,
        105.7924575805664
      ],
      [
        -0.1786157190799713,
        0.2726731300354004,
        -1.0501993894577026,
        38.38575744628906
      ],
      [
        -0.031550802290439606,
        1.0585525035858154,
        0.2823885679244995,
        -104.43102264404297
      ],
      [
        0.0,
        0.0,
        0.0,
        1.0
      ]
    ],
    "dcmmeta_reorient_transform": [
      [
        0.0,
        -1.0,
        0.0,
        187.0
      ],
      [
        1.0,
        0.0,
        0.0,
        0.0
      ],
      [
        0.0,
        0.0,
        1.0,
        0.0
      ],
      [
        0.0,
        0.0,
        0.0,
        1.0
      ]
    ],
    "dcmmeta_shape": [
      188,
      188,
      46,
      150
    ],
    "dcmmeta_slice_dim": 2,
    "dcmmeta_version": 0.6,
    "global": {
      "const": {
        "AcquisitionMatrix": [
          188,
          0,
          0,
          188
        ],
        "AngioFlag": "N",
        "BitsAllocated": 16,
        "BitsStored": 12,
        "Columns": 1316,
        "EchoNumbers": 1,
        "EchoTime": 20.0,
        "EchoTrainLength": 1,
        "FlipAngle": 80.0,
        "HighBit": 11,
        "ImageOrientationPatient": [
          0.98620440882072,
          0.16300850687845,
          -0.0287939352612,
          -0.0693373782187,
          0.24884730227185,
          -0.9660576318905
        ],
        "ImagePositionPatient": [
          -658.20878620656,
          -343.90253067471,
          708.33660116918
        ],
        "ImageType": [
          "ORIGINAL",
          "PRIMARY",
          "M",
          "MB",
          "ND",
          "MOSAIC"
        ],
        "ImagedNucleus": "1H",
        "ImagingFrequency": 297.205637,
        "InPlanePhaseEncodingDirection": "COL",
        "LargestImagePixelValue": 4095,
        "MRAcquisitionType": "2D",
        "MagneticFieldStrength": 6.98,
        "Manufacturer": "SIEMENS",
        "ManufacturerModelName": "Investigational_Device_7T",
        "Modality": "MR",
        "NumberOfAverages": 1.0,
        "NumberOfPhaseEncodingSteps": 141,
        "PercentPhaseFieldOfView": 100.0,
        "PercentSampling": 100.0,
        "PerformedProcedureStepStartTime": "082549.906000",
        "PhotometricInterpretation": "MONOCHROME2",
        "PixelBandwidth": 1400.0,
        "PixelRepresentation": 0,
        "PixelSpacing": [
          1.0957447290421,
          1.0957447290421
        ],
        "ProtocolName": "cmrr_mbep2d_bold_AP_run3",
        "RepetitionTime": 2600.0,
        "Rows": 1316,
        "SAR": 0.04505713297742,
        "SamplesPerPixel": 1,
        "ScanOptions": [
          "PFP",
          "FS"
        ],
        "ScanningSequence": "EP",
        "SequenceName": "epfid2d1_188",
        "SequenceVariant": [
          "SK",
          "SS"
        ],
        "SeriesDescription": "cmrr_mbep2d_bold_AP_run3",
        "SeriesNumber": 12,
        "SeriesTime": "090351.937000",
        "SliceLocation": -47.555418439178,
        "SliceThickness": 1.1000000238419,
        "SmallestImagePixelValue": 0,
        "SoftwareVersions": "syngo MR B17",
        "SpacingBetweenSlices": 1.0999999671714,
        "SpecificCharacterSet": "ISO_IR 100",
        "StudyID": "1",
        "StudyTime": "082549.843000",
        "TransmitCoilName": "32Ch_Head_7T",
        "VariableFlipAngleFlag": "N",
        "WindowCenterWidthExplanation": "Algo1",
        "dBdt": 0.0
      },
      "slices": {}
    },
    "modality": "bold",
    "run_id": 3,
    "session_id": "SES02",
    "subject_id": "S03",
    "task_id": "auditory",
    "time": {
      "samples": {
        "AcquisitionNumber": [
          1,
          2,
          3,
          4,
          5,
          6,
          7,
          8,
          9,
          10,
          11,
          12,
          13,
          14,
          15,
          16,
          17,
          18,
          19,
          20,
          21,
          22,
          23,
          24,
          25,
          26,
          27,
          28,
          29,
          30,
          31,
          32,
          33,
          34,
          35,
          36,
          37,
          38,
          39,
          40,
          41,
          42,
          43,
          44,
          45,
          46,
          47,
          48,
          49,
          50,
          51,
          52,
          53,
          54,
          55,
          56,
          57,
          58,
          59,
          60,
          61,
          62,
          63,
          64,
          65,
          66,
          67,
          68,
          69,
          70,
          71,
          72,
          73,
          74,
          75,
          76,
          77,
          78,
          79,
          80,
          81,
          82,
          83,
          84,
          85,
          86,
          87,
          88,
          89,
          90,
          91,
          92,
          93,
          94,
          95,
          96,
          97,
          98,
          99,
          100,
          101,
          102,
          103,
          104,
          105,
          106,
          107,
          108,
          109,
          110,
          111,
          112,
          113,
          114,
          115,
          116,
          117,
          118,
          119,
          120,
          121,
          122,
          123,
          124,
          125,
          126,
          127,
          128,
          129,
          130,
          131,
          132,
          133,
          134,
          135,
          136,
          137,
          138,
          139,
          140,
          141,
          142,
          143,
          144,
          145,
          146,
          147,
          148,
          149,
          150
        ],
        "AcquisitionTime": [
          "090342.302500",
          "090344.912500",
          "090347.522500",
          "090350.132500",
          "090352.742500",
          "090355.355000",
          "090357.965000",
          "090400.575000",
          "090403.185000",
          "090405.795000",
          "090408.405000",
          "090411.017500",
          "090413.627500",
          "090416.237500",
          "090418.847500",
          "090421.457500",
          "090424.070000",
          "090426.680000",
          "090429.290000",
          "090431.900000",
          "090434.510000",
          "090437.120000",
          "090439.732500",
          "090442.342500",
          "090444.952500",
          "090447.562500",
          "090450.172500",
          "090452.785000",
          "090455.395000",
          "090458.005000",
          "090500.615000",
          "090503.225000",
          "090505.835000",
          "090508.447500",
          "090511.057500",
          "090513.667500",
          "090516.277500",
          "090518.887500",
          "090521.497500",
          "090524.110000",
          "090526.720000",
          "090529.330000",
          "090531.940000",
          "090534.550000",
          "090537.162500",
          "090539.772500",
          "090542.382500",
          "090544.992500",
          "090547.602500",
          "090550.212500",
          "090552.825000",
          "090555.435000",
          "090558.045000",
          "090600.655000",
          "090603.265000",
          "090605.875000",
          "090608.487500",
          "090611.097500",
          "090613.707500",
          "090616.317500",
          "090618.927500",
          "090621.540000",
          "090624.150000",
          "090626.760000",
          "090629.370000",
          "090631.980000",
          "090634.590000",
          "090637.202500",
          "090639.812500",
          "090642.422500",
          "090645.032500",
          "090647.642500",
          "090650.252500",
          "090652.865000",
          "090655.475000",
          "090658.085000",
          "090700.695000",
          "090703.305000",
          "090705.917500",
          "090708.527500",
          "090711.137500",
          "090713.747500",
          "090716.357500",
          "090718.967500",
          "090721.580000",
          "090724.190000",
          "090726.800000",
          "090729.410000",
          "090732.020000",
          "090734.630000",
          "090737.242500",
          "090739.852500",
          "090742.462500",
          "090745.072500",
          "090747.682500",
          "090750.295000",
          "090752.905000",
          "090755.515000",
          "090758.125000",
          "090800.735000",
          "090803.345000",
          "090805.957500",
          "090808.567500",
          "090811.177500",
          "090813.787500",
          "090816.397500",
          "090819.007500",
          "090821.620000",
          "090824.230000",
          "090826.840000",
          "090829.450000",
          "090832.060000",
          "090834.672500",
          "090837.282500",
          "090839.892500",
          "090842.502500",
          "090845.112500",
          "090847.722500",
          "090850.335000",
          "090852.945000",
          "090855.555000",
          "090858.165000",
          "090900.775000",
          "090903.385000",
          "090905.997500",
          "090908.607500",
          "090911.217500",
          "090913.827500",
          "090916.437500",
          "090919.050000",
          "090921.660000",
          "090924.270000",
          "090926.880000",
          "090929.490000",
          "090932.100000",
          "090934.712500",
          "090937.322500",
          "090939.932500",
          "090942.542500",
          "090945.152500",
          "090947.762500",
          "090950.375000",
          "090952.985000",
          "090955.595000",
          "090958.205000",
          "091000.815000",
          "091003.427500",
          "091006.037500",
          "091008.647500",
          "091011.257500"
        ],
        "ContentTime": [
          "090351.937000",
          "090351.937000",
          "090352.937000",
          "090354.937000",
          "090357.437000",
          "090359.937000",
          "090402.937000",
          "090405.437000",
          "090407.937000",
          "090410.437000",
          "090412.937000",
          "090415.937000",
          "090418.437000",
          "090420.937000",
          "090423.437000",
          "090425.937000",
          "090428.937000",
          "090431.437000",
          "090433.937000",
          "090436.437000",
          "090438.937000",
          "090441.937000",
          "090444.437000",
          "090446.937000",
          "090449.437000",
          "090451.937000",
          "090454.937000",
          "090457.437000",
          "090459.937000",
          "090502.437000",
          "090504.937000",
          "090507.937000",
          "090510.437000",
          "090512.937000",
          "090515.437000",
          "090517.937000",
          "090520.937000",
          "090523.437000",
          "090525.937000",
          "090528.437000",
          "090530.937000",
          "090533.937000",
          "090536.437000",
          "090538.937000",
          "090541.437000",
          "090543.937000",
          "090546.937000",
          "090549.437000",
          "090551.937000",
          "090554.437000",
          "090556.937000",
          "090559.937000",
          "090602.437000",
          "090604.937000",
          "090607.437000",
          "090609.937000",
          "090612.937000",
          "090615.437000",
          "090617.937000",
          "090620.437000",
          "090622.937000",
          "090625.937000",
          "090628.437000",
          "090630.937000",
          "090633.437000",
          "090635.937000",
          "090638.937000",
          "090641.437000",
          "090643.937000",
          "090646.437000",
          "090648.937000",
          "090651.937000",
          "090654.437000",
          "090656.937000",
          "090659.437000",
          "090701.937000",
          "090704.937000",
          "090707.437000",
          "090709.937000",
          "090712.437000",
          "090714.937000",
          "090717.937000",
          "090720.437000",
          "090722.937000",
          "090725.437000",
          "090727.937000",
          "090730.937000",
          "090733.437000",
          "090735.937000",
          "090738.437000",
          "090740.937000",
          "090743.937000",
          "090746.437000",
          "090748.937000",
          "090751.437000",
          "090753.937000",
          "090756.937000",
          "090759.437000",
          "090801.937000",
          "090804.437000",
          "090806.937000",
          "090809.937000",
          "090812.437000",
          "090814.937000",
          "090817.437000",
          "090819.937000",
          "090822.937000",
          "090825.437000",
          "090827.937000",
          "090830.437000",
          "090832.937000",
          "090835.937000",
          "090838.437000",
          "090840.937000",
          "090843.437000",
          "090845.937000",
          "090848.937000",
          "090851.437000",
          "090853.937000",
          "090856.437000",
          "090858.937000",
          "090901.937000",
          "090904.437000",
          "090906.937000",
          "090909.437000",
          "090911.937000",
          "090914.937000",
          "090917.437000",
          "090919.937000",
          "090922.437000",
          "090924.937000",
          "090927.937000",
          "090930.437000",
          "090932.937000",
          "090935.437000",
          "090937.937000",
          "090940.937000",
          "090943.437000",
          "090945.937000",
          "090948.437000",
          "090950.937000",
          "090953.937000",
          "090956.437000",
          "090958.937000",
          "091001.437000",
          "091003.937000",
          "091006.937000",
          "091009.437000",
          "091011.937000",
          "091019.281000"
        ],
        "InstanceCreationTime": [
          "090351.937000",
          "090351.937000",
          "090352.937000",
          "090354.937000",
          "090357.437000",
          "090359.937000",
          "090402.937000",
          "090405.437000",
          "090407.937000",
          "090410.437000",
          "090412.937000",
          "090415.937000",
          "090418.437000",
          "090420.937000",
          "090423.437000",
          "090425.937000",
          "090428.937000",
          "090431.437000",
          "090433.937000",
          "090436.437000",
          "090438.937000",
          "090441.937000",
          "090444.437000",
          "090446.937000",
          "090449.437000",
          "090451.937000",
          "090454.937000",
          "090457.437000",
          "090459.937000",
          "090502.437000",
          "090504.937000",
          "090507.937000",
          "090510.437000",
          "090512.937000",
          "090515.437000",
          "090517.937000",
          "090520.937000",
          "090523.437000",
          "090525.937000",
          "090528.437000",
          "090530.937000",
          "090533.937000",
          "090536.437000",
          "090538.937000",
          "090541.437000",
          "090543.937000",
          "090546.937000",
          "090549.437000",
          "090551.937000",
          "090554.437000",
          "090556.937000",
          "090559.937000",
          "090602.437000",
          "090604.937000",
          "090607.437000",
          "090609.937000",
          "090612.937000",
          "090615.437000",
          "090617.937000",
          "090620.437000",
          "090622.937000",
          "090625.937000",
          "090628.437000",
          "090630.937000",
          "090633.437000",
          "090635.937000",
          "090638.937000",
          "090641.437000",
          "090643.937000",
          "090646.437000",
          "090648.937000",
          "090651.937000",
          "090654.437000",
          "090656.937000",
          "090659.437000",
          "090701.937000",
          "090704.937000",
          "090707.437000",
          "090709.937000",
          "090712.437000",
          "090714.937000",
          "090717.937000",
          "090720.437000",
          "090722.937000",
          "090725.437000",
          "090727.937000",
          "090730.937000",
          "090733.437000",
          "090735.937000",
          "090738.437000",
          "090740.937000",
          "090743.937000",
          "090746.437000",
          "090748.937000",
          "090751.437000",
          "090753.937000",
          "090756.937000",
          "090759.437000",
          "090801.937000",
          "090804.437000",
          "090806.937000",
          "090809.937000",
          "090812.437000",
          "090814.937000",
          "090817.437000",
          "090819.937000",
          "090822.937000",
          "090825.437000",
          "090827.937000",
          "090830.437000",
          "090832.937000",
          "090835.937000",
          "090838.437000",
          "090840.937000",
          "090843.437000",
          "090845.937000",
          "090848.937000",
          "090851.437000",
          "090853.937000",
          "090856.437000",
          "090858.937000",
          "090901.937000",
          "090904.437000",
          "090906.937000",
          "090909.437000",
          "090911.937000",
          "090914.937000",
          "090917.437000",
          "090919.937000",
          "090922.437000",
          "090924.937000",
          "090927.937000",
          "090930.437000",
          "090932.937000",
          "090935.437000",
          "090937.937000",
          "090940.937000",
          "090943.437000",
          "090945.937000",
          "090948.437000",
          "090950.937000",
          "090953.937000",
          "090956.437000",
          "090958.937000",
          "091001.437000",
          "091003.937000",
          "091006.937000",
          "091009.437000",
          "091011.937000",
          "091019.281000"
        ],
        "InstanceNumber": [
          1,
          2,
          3,
          4,
          5,
          6,
          7,
          8,
          9,
          10,
          11,
          12,
          13,
          14,
          15,
          16,
          17,
          18,
          19,
          20,
          21,
          22,
          23,
          24,
          25,
          26,
          27,
          28,
          29,
          30,
          31,
          32,
          33,
          34,
          35,
          36,
          37,
          38,
          39,
          40,
          41,
          42,
          43,
          44,
          45,
          46,
          47,
          48,
          49,
          50,
          51,
          52,
          53,
          54,
          55,
          56,
          57,
          58,
          59,
          60,
          61,
          62,
          63,
          64,
          65,
          66,
          67,
          68,
          69,
          70,
          71,
          72,
          73,
          74,
          75,
          76,
          77,
          78,
          79,
          80,
          81,
          82,
          83,
          84,
          85,
          86,
          87,
          88,
          89,
          90,
          91,
          92,
          93,
          94,
          95,
          96,
          97,
          98,
          99,
          100,
          101,
          102,
          103,
          104,
          105,
          106,
          107,
          108,
          109,
          110,
          111,
          112,
          113,
          114,
          115,
          116,
          117,
          118,
          119,
          120,
          121,
          122,
          123,
          124,
          125,
          126,
          127,
          128,
          129,
          130,
          131,
          132,
          133,
          134,
          135,
          136,
          137,
          138,
          139,
          140,
          141,
          142,
          143,
          144,
          145,
          146,
          147,
          148,
          149,
          150
        ],
        "WindowCenter": [
          826.0,
          826.0,
          825.0,
          822.0,
          825.0,
          824.0,
          823.0,
          822.0,
          824.0,
          824.0,
          824.0,
          825.0,
          824.0,
          823.0,
          825.0,
          825.0,
          824.0,
          826.0,
          825.0,
          824.0,
          826.0,
          827.0,
          824.0,
          823.0,
          826.0,
          825.0,
          822.0,
          823.0,
          825.0,
          822.0,
          822.0,
          823.0,
          825.0,
          824.0,
          822.0,
          823.0,
          826.0,
          823.0,
          823.0,
          825.0,
          825.0,
          821.0,
          822.0,
          824.0,
          823.0,
          823.0,
          825.0,
          823.0,
          823.0,
          824.0,
          823.0,
          822.0,
          825.0,
          824.0,
          823.0,
          823.0,
          823.0,
          824.0,
          824.0,
          822.0,
          822.0,
          824.0,
          823.0,
          824.0,
          823.0,
          823.0,
          823.0,
          825.0,
          826.0,
          825.0,
          822.0,
          825.0,
          826.0,
          822.0,
          823.0,
          823.0,
          823.0,
          823.0,
          822.0,
          823.0,
          826.0,
          826.0,
          823.0,
          823.0,
          823.0,
          822.0,
          822.0,
          825.0,
          824.0,
          822.0,
          823.0,
          824.0,
          824.0,
          824.0,
          822.0,
          823.0,
          824.0,
          823.0,
          822.0,
          823.0,
          824.0,
          823.0,
          824.0,
          824.0,
          823.0,
          823.0,
          824.0,
          824.0,
          823.0,
          824.0,
          824.0,
          824.0,
          825.0,
          825.0,
          823.0,
          823.0,
          823.0,
          824.0,
          823.0,
          822.0,
          824.0,
          823.0,
          821.0,
          824.0,
          825.0,
          824.0,
          822.0,
          825.0,
          825.0,
          822.0,
          821.0,
          822.0,
          823.0,
          821.0,
          823.0,
          822.0,
          823.0,
          823.0,
          823.0,
          822.0,
          823.0,
          823.0,
          825.0,
          824.0,
          823.0,
          825.0,
          824.0,
          823.0,
          822.0,
          822.0
        ],
        "WindowWidth": [
          1863.0,
          1863.0,
          1861.0,
          1852.0,
          1860.0,
          1857.0,
          1853.0,
          1851.0,
          1857.0,
          1855.0,
          1856.0,
          1858.0,
          1857.0,
          1853.0,
          1858.0,
          1859.0,
          1859.0,
          1863.0,
          1860.0,
          1856.0,
          1865.0,
          1866.0,
          1858.0,
          1854.0,
          1863.0,
          1859.0,
          1850.0,
          1854.0,
          1859.0,
          1851.0,
          1850.0,
          1855.0,
          1860.0,
          1857.0,
          1850.0,
          1855.0,
          1864.0,
          1854.0,
          1852.0,
          1860.0,
          1859.0,
          1848.0,
          1851.0,
          1858.0,
          1855.0,
          1855.0,
          1859.0,
          1855.0,
          1853.0,
          1857.0,
          1853.0,
          1852.0,
          1859.0,
          1858.0,
          1852.0,
          1853.0,
          1855.0,
          1858.0,
          1857.0,
          1851.0,
          1850.0,
          1855.0,
          1855.0,
          1857.0,
          1855.0,
          1853.0,
          1855.0,
          1862.0,
          1865.0,
          1860.0,
          1850.0,
          1860.0,
          1862.0,
          1849.0,
          1852.0,
          1855.0,
          1853.0,
          1852.0,
          1851.0,
          1852.0,
          1864.0,
          1861.0,
          1853.0,
          1852.0,
          1855.0,
          1850.0,
          1851.0,
          1860.0,
          1855.0,
          1850.0,
          1854.0,
          1857.0,
          1857.0,
          1854.0,
          1850.0,
          1853.0,
          1855.0,
          1851.0,
          1849.0,
          1852.0,
          1855.0,
          1852.0,
          1855.0,
          1856.0,
          1851.0,
          1854.0,
          1855.0,
          1855.0,
          1853.0,
          1856.0,
          1855.0,
          1855.0,
          1858.0,
          1859.0,
          1854.0,
          1852.0,
          1853.0,
          1854.0,
          1851.0,
          1851.0,
          1855.0,
          1851.0,
          1847.0,
          1856.0,
          1860.0,
          1854.0,
          1851.0,
          1859.0,
          1860.0,
          1850.0,
          1848.0,
          1851.0,
          1853.0,
          1846.0,
          1853.0,
          1851.0,
          1852.0,
          1854.0,
          1852.0,
          1851.0,
          1853.0,
          1854.0,
          1859.0,
          1857.0,
          1852.0,
          1859.0,
          1857.0,
          1852.0,
          1850.0,
          1851.0
        ]
      },
      "slices": {}
    }
  },
  "dummy_trs": 0,
  "dvars_nstd": 74.68094501859058,
  "dvars_std": 1.097696335838926,
  "dvars_vstd": 1.0204975235570473,
  "efc": 0.5572396287882332,
  "fber": 398.7498779296875,
  "fd_mean": 0.1206789928813139,
  "fd_num": 11,
  "fd_perc": 7.333333333333333,
  "fwhm_avg": 2.828303705822807,
  "fwhm_x": 2.7088517255245534,
  "fwhm_y": 2.6544503686938308,
  "fwhm_z": 3.1216090232500373,
  "gcor": 0.00368821,
  "gsr_x": -0.013226697221398354,
  "gsr_y": 0.06187118962407112,
  "provenance": {
    "md5sum": "692e82d13169e92633e1b49e37f7e6ac",
    "settings": {
      "fd_thres": 0.2,
      "testing": false
    },
    "software": "mriqc",
    "version": "22.0.0rc1",
    "webapi_port": null,
    "webapi_url": "https://mriqc.nimh.nih.gov/api/v1"
  },
  "size_t": 150,
  "size_x": 188,
  "size_y": 188,
  "size_z": 46,
  "snr": 2.3763698405573392,
  "spacing_tr": 2.5999999046325684,
  "spacing_x": 1.0957447290420532,
  "spacing_y": 1.0957447290420532,
  "spacing_z": 1.100000023841858,
  "summary_bg_k": 46.72809128109602,
  "summary_bg_mad": 22.782654279558706,
  "summary_bg_mean": 76.09867858886719,
  "summary_bg_median": 43.686668395996094,
  "summary_bg_n": 1076327.0,
  "summary_bg_p05": 26.553333282470703,
