{
  "aor": 0.0006104666666666668,
  "aqi": 0.013833329999999998,
  "bids_meta": {
    "AcquisitionMatrixPE": 188,
    "AcquisitionNumber": 1,
    "AcquisitionTime": "10:08:17.280000",
    "BandwidthPerPixelPhaseEncode": 19.46,
    "BaseResolution": 188,
    "ConversionSoftware": "dcm2niix",
    "ConversionSoftwareVersion": "v1.0.20180606 GCC4.8.5",
    "DelayTime": 1.2,
    "DerivedVendorReportedEchoSpacing": 0.000820013,
    "DeviceSerialNumber": "18930",
    "DwellTime": 1.9e-06,
    "EchoTime": 0.02,
    "EffectiveEchoSpacing": 0.000273338,
    "FlipAngle": 80,
    "ImageComments": "Unaliased_MB2_PE2",
    "ImageOrientationPatientDICOM": [
      0.986204,
      0.163009,
      -0.0287939,
      -0.0693374,
      0.248847,
      -0.966058
    ],
    "ImageType": [
      "ORIGINAL",
      "PRIMARY",
      "M",
      "MB",
      "ND",
      "MOSAIC"
    ],
    "InPlanePhaseEncodingDirectionDICOM": "COL",
    "InstitutionAddress": "Oxfordlaan_55_Maastricht_22AAA2_Limburg_NL_6229_EV",
    "InstitutionName": "Scannexus",
    "InstitutionalDepartmentName": "MRI_7T",
    "MRAcquisitionType": "2D",
    "MagneticFieldStrength": 6.98,
    "Manufacturer": "Siemens",
    "ManufacturersModelName": "Investigational_Device_7T",
    "Modality": "MR",
    "MultibandAccelerationFactor": 2,
    "ParallelReductionFactorInPlane": 3,
    "PartialFourier": 0.75,
    "PatientPosition": "HFS",
    "PercentPhaseFOV": 100,
    "PhaseEncodingDirection": "j",
    "PhaseEncodingSteps": 141,
    "PhaseResolution": 1,
    "PixelBandwidth": 1400,
    "ProcedureStepDescription": "FeDem_Faruk",
    "ProtocolName": "cmrr_mbep2d_bold_AP_run11",
    "PulseSequenceDetails": "%CustomerSeq%_cmrr_mbep2d_bold",
    "ReceiveCoilName": "32Ch_Head_7T",
    "ReconMatrixPE": 188,
    "RepetitionTime": 2.6,
    "SAR": 0.0448648,
    "ScanOptions": "PFP_FS",
    "ScanningSequence": "EP",
    "SequenceName": "epfid2d1_188",
    "SequenceVariant": "SK_SS",
    "SeriesDescription": "cmrr_mbep2d_bold_AP_run11",
    "SeriesNumber": 22,
    "ShimSetting": [
      33,
      -58,
      487,
      457,
      -151,
      72,
      370,
      98
    ],
    "SliceThickness": 1.1,
    "SliceTiming": [
      0,
      0.735,
      0.0625,
      0.795,
      0.1225,
      0.8575,
      0.185,
      0.9175,
      0.245,
      0.9775,
      0.3075,
      1.04,
      0.3675,
      1.1,
      0.4275,
      1.1625,
      0.49,
      1.2225,
      0.55,
      1.285,
      0.6125,
      1.345,
      0.6725,
      0,
      0.735,
      0.0625,
      0.795,
      0.1225,
      0.8575,
      0.185,
      0.9175,
      0.245,
      0.9775,
      0.3075,
      1.04,
      0.3675,
      1.1,
      0.4275,
      1.1625,
      0.49,
      1.2225,
      0.55,
      1.285,
      0.6125,
      1.345,
      0.6725
    ],
    "SoftwareVersions": "syngo_MR_B17",
    "SpacingBetweenSlices": 1.1,
    "StationName": "MRC18930",
    "TaskName": "auditory",
    "TotalReadoutTime": 0.0511141,
    "TxRefAmp": 181,
    "dataset": "ds001942",
    "dcmmeta_affine": [
      [
        -1.0806282758712769,
        -0.07597606629133224,
        0.1653413474559784,
        105.7924575805664
      ],
      [
        -0.1786157190799713,
        0.2726731300354004,
        -1.0501993894577026,
        38.38575744628906
      ],
      [
        -0.031550802290439606,
        1.0585525035858154,
        0.2823885679244995,
        -104.43102264404297
      ],
      [
        0.0,
        0.0,
        0.0,
        1.0
      ]
    ],
    "dcmmeta_reorient_transform": [
      [
        0.0,
        -1.0,
        0.0,
        187.0
      ],
      [
        1.0,
        0.0,
        0.0,
        0.0
      ],
      [
        0.0,
        0.0,
        1.0,
        0.0
      ],
      [
        0.0,
        0.0,
        0.0,
        1.0
      ]
    ],
    "dcmmeta_shape": [
      188,
      188,
      46,
      150
    ],
    "dcmmeta_slice_dim": 2,
    "dcmmeta_version": 0.6,
    "global": {
      "const": {
        "AcquisitionMatrix": [
          188,
          0,
          0,
          188
        ],
        "AngioFlag": "N",
        "BitsAllocated": 16,
        "BitsStored": 12,
        "Columns": 1316,
        "EchoNumbers": 1,
        "EchoTime": 20.0,
        "EchoTrainLength": 1,
        "FlipAngle": 80.0,
        "HighBit": 11,
        "ImageOrientationPatient": [
          0.98620440882072,
          0.16300850687845,
          -0.0287939352612,
          -0.0693373782187,
          0.24884730227185,
          -0.9660576318905
        ],
        "ImagePositionPatient": [
          -658.20878620656,
          -343.90253067471,
          708.33660116918
        ],
        "ImageType": [
          "ORIGINAL",
          "PRIMARY",
          "M",
          "MB",
          "ND",
          "MOSAIC"
        ],
        "ImagedNucleus": "1H",
        "ImagingFrequency": 297.20567,
        "InPlanePhaseEncodingDirection": "COL",
        "LargestImagePixelValue": 4095,
        "MRAcquisitionType": "2D",
        "MagneticFieldStrength": 6.98,
        "Manufacturer": "SIEMENS",
        "ManufacturerModelName": "Investigational_Device_7T",
        "Modality": "MR",
        "NumberOfAverages": 1.0,
        "NumberOfPhaseEncodingSteps": 141,
        "PercentPhaseFieldOfView": 100.0,
        "PercentSampling": 100.0,
        "PerformedProcedureStepStartTime": "082549.906000",
        "PhotometricInterpretation": "MONOCHROME2",
        "PixelBandwidth": 1400.0,
        "PixelRepresentation": 0,
        "PixelSpacing": [
          1.0957447290421,
          1.0957447290421
        ],
        "ProtocolName": "cmrr_mbep2d_bold_AP_run11",
        "RepetitionTime": 2600.0,
        "Rows": 1316,
        "SAR": 0.04486481741895,
        "SamplesPerPixel": 1,
        "ScanOptions": [
          "PFP",
          "FS"
        ],
        "ScanningSequence": "EP",
        "SequenceName": "epfid2d1_188",
        "SequenceVariant": [
          "SK",
          "SS"
        ],
        "SeriesDescription": "cmrr_mbep2d_bold_AP_run11",
        "SeriesNumber": 22,
        "SeriesTime": "100827.500000",
        "SliceLocation": -47.555418439178,
        "SliceThickness": 1.1000000238419,
        "SmallestImagePixelValue": 0,
        "SoftwareVersions": "syngo MR B17",
        "SpacingBetweenSlices": 1.0999999671714,
        "SpecificCharacterSet": "ISO_IR 100",
        "StudyID": "1",
        "StudyTime": "082549.843000",
        "TransmitCoilName": "32Ch_Head_7T",
        "VariableFlipAngleFlag": "N",
        "WindowCenterWidthExplanation": "Algo1",
        "dBdt": 0.0
      },
      "slices": {}
    },
    "modality": "bold",
    "run_id": 11,
    "session_id": "SES02",
    "subject_id": "S03",
    "task_id": "auditory",
    "time": {
      "samples": {
        "AcquisitionNumber": [
          1,
          2,
          3,
          4,
          5,
          6,
          7,
          8,
          9,
          10,
          11,
          12,
          13,
          14,
          15,
          16,
          17,
          18,
          19,
          20,
          21,
          22,
          23,
          24,
          25,
          26,
          27,
          28,
          29,
          30,
          31,
          32,
          33,
          34,
          35,
          36,
          37,
          38,
          39,
          40,
          41,
          42,
          43,
          44,
          45,
          46,
          47,
          48,
          49,
          50,
          51,
          52,
          53,
          54,
          55,
          56,
          57,
          58,
          59,
          60,
          61,
          62,
          63,
          64,
          65,
          66,
          67,
          68,
          69,
          70,
          71,
          72,
          73,
          74,
          75,
          76,
          77,
          78,
          79,
          80,
          81,
          82,
          83,
          84,
          85,
          86,
          87,
          88,
          89,
          90,
          91,
          92,
          93,
          94,
          95,
          96,
          97,
          98,
          99,
          100,
          101,
          102,
          103,
          104,
          105,
          106,
          107,
          108,
          109,
          110,
          111,
          112,
          113,
          114,
          115,
          116,
          117,
          118,
          119,
          120,
          121,
          122,
          123,
          124,
          125,
          126,
          127,
          128,
          129,
          130,
          131,
          132,
          133,
          134,
          135,
          136,
          137,
          138,
          139,
          140,
          141,
          142,
          143,
          144,
          145,
          146,
          147,
          148,
          149,
          150
        ],
        "AcquisitionTime": [
          "100817.280000",
          "100819.890000",
          "100822.502500",
          "100825.112500",
          "100827.722500",
          "100830.332500",
          "100832.942500",
          "100835.555000",
          "100838.165000",
          "100840.775000",
          "100843.385000",
          "100845.995000",
          "100848.605000",
          "100851.217500",
          "100853.827500",
          "100856.437500",
          "100859.047500",
          "100901.657500",
          "100904.267500",
          "100906.880000",
          "100909.490000",
          "100912.100000",
          "100914.710000",
          "100917.320000",
          "100919.932500",
          "100922.542500",
          "100925.152500",
          "100927.762500",
          "100930.372500",
          "100932.982500",
          "100935.595000",
          "100938.205000",
          "100940.815000",
          "100943.425000",
          "100946.035000",
          "100948.647500",
          "100951.257500",
          "100953.867500",
          "100956.477500",
          "100959.087500",
          "101001.697500",
          "101004.310000",
          "101006.920000",
          "101009.530000",
          "101012.140000",
          "101014.750000",
          "101017.360000",
          "101019.972500",
          "101022.582500",
          "101025.192500",
          "101027.802500",
          "101030.412500",
          "101033.025000",
          "101035.635000",
          "101038.245000",
          "101040.855000",
          "101043.465000",
          "101046.075000",
          "101048.687500",
          "101051.297500",
          "101053.907500",
          "101056.517500",
          "101059.127500",
          "101101.737500",
          "101104.350000",
          "101106.960000",
          "101109.570000",
          "101112.180000",
          "101114.790000",
          "101117.402500",
          "101120.012500",
          "101122.622500",
          "101125.232500",
          "101127.842500",
          "101130.452500",
          "101133.065000",
          "101135.675000",
          "101138.285000",
          "101140.895000",
          "101143.505000",
          "101146.115000",
          "101148.727500",
          "101151.337500",
          "101153.947500",
          "101156.557500",
          "101159.167500",
          "101201.780000",
          "101204.390000",
          "101207.000000",
          "101209.610000",
          "101212.220000",
          "101214.830000",
          "101217.442500",
          "101220.052500",
          "101222.662500",
          "101225.272500",
          "101227.882500",
          "101230.492500",
          "101233.105000",
          "101235.715000",
          "101238.325000",
          "101240.935000",
          "101243.545000",
          "101246.157500",
          "101248.767500",
          "101251.377500",
          "101253.987500",
          "101256.597500",
          "101259.207500",
          "101301.820000",
          "101304.430000",
          "101307.040000",
          "101309.650000",
          "101312.260000",
          "101314.870000",
          "101317.482500",
          "101320.092500",
          "101322.702500",
          "101325.312500",
          "101327.922500",
          "101330.535000",
          "101333.145000",
          "101335.755000",
          "101338.365000",
          "101340.975000",
          "101343.585000",
          "101346.197500",
          "101348.807500",
          "101351.417500",
          "101354.027500",
          "101356.637500",
          "101359.247500",
          "101401.860000",
          "101404.470000",
          "101407.080000",
          "101409.690000",
          "101412.300000",
          "101414.912500",
          "101417.522500",
          "101420.132500",
          "101422.742500",
          "101425.352500",
          "101427.962500",
          "101430.575000",
          "101433.185000",
          "101435.795000",
          "101438.405000",
          "101441.015000",
          "101443.625000",
          "101446.237500"
        ],
        "ContentTime": [
          "100827.500000",
          "100827.515000",
          "100828.000000",
          "100830.500000",
          "100833.000000",
          "100835.500000",
          "100838.500000",
          "100841.000000",
          "100843.500000",
          "100846.000000",
          "100849.000000",
          "100851.500000",
          "100854.000000",
          "100856.500000",
          "100859.000000",
          "100901.500000",
          "100904.500000",
          "100907.000000",
          "100909.500000",
          "100912.000000",
          "100914.500000",
          "100917.500000",
          "100920.000000",
          "100922.500000",
          "100925.000000",
          "100927.500000",
          "100930.500000",
          "100933.000000",
          "100935.500000",
          "100938.000000",
          "100940.500000",
          "100943.500000",
          "100946.000000",
          "100948.500000",
          "100951.000000",
          "100954.000000",
          "100956.500000",
          "100959.000000",
          "101001.500000",
          "101004.000000",
          "101006.500000",
          "101009.500000",
          "101012.000000",
          "101014.500000",
          "101017.000000",
          "101019.500000",
          "101022.500000",
          "101025.000000",
          "101027.500000",
          "101030.000000",
          "101033.000000",
          "101035.500000",
          "101038.000000",
          "101040.500000",
          "101043.000000",
          "101045.500000",
          "101048.500000",
          "101051.000000",
          "101053.500000",
          "101056.000000",
          "101059.000000",
          "101101.500000",
          "101104.000000",
          "101106.500000",
          "101109.000000",
          "101111.500000",
          "101114.500000",
          "101117.000000",
          "101119.500000",
          "101122.000000",
          "101125.000000",
          "101127.500000",
          "101130.000000",
          "101132.500000",
          "101135.000000",
          "101137.500000",
          "101140.500000",
          "101143.000000",
          "101145.500000",
          "101148.000000",
          "101151.000000",
          "101153.500000",
          "101156.000000",
          "101158.500000",
          "101201.000000",
          "101203.500000",
          "101206.500000",
          "101209.000000",
          "101211.500000",
          "101214.000000",
          "101216.500000",
          "101219.500000",
          "101222.000000",
          "101224.500000",
          "101227.000000",
          "101229.500000",
          "101232.500000",
          "101235.000000",
          "101237.500000",
          "101240.000000",
          "101242.500000",
          "101245.500000",
          "101248.000000",
          "101250.500000",
          "101253.000000",
          "101255.500000",
          "101258.500000",
          "101301.000000",
          "101303.500000",
          "101306.000000",
          "101308.500000",
          "101311.500000",
          "101314.000000",
          "101316.500000",
          "101319.000000",
          "101321.500000",
          "101324.500000",
          "101327.000000",
          "101329.500000",
          "101332.000000",
          "101334.500000",
          "101337.500000",
          "101340.000000",
          "101342.500000",
          "101345.000000",
          "101347.500000",
          "101350.500000",
          "101353.000000",
          "101355.500000",
          "101358.000000",
          "101400.500000",
          "101403.500000",
          "101406.000000",
          "101408.500000",
          "101411.000000",
          "101413.500000",
          "101416.500000",
          "101419.000000",
          "101421.500000",
          "101424.000000",
          "101426.500000",
          "101429.500000",
          "101432.000000",
          "101434.500000",
          "101437.000000",
          "101439.500000",
          "101442.500000",
          "101445.000000",
          "101447.500000",
          "101454.875000"
        ],
        "InstanceCreationTime": [
          "100827.500000",
          "100827.515000",
          "100828.000000",
          "100830.500000",
          "100833.000000",
          "100835.500000",
          "100838.500000",
          "100841.000000",
          "100843.500000",
          "100846.000000",
          "100849.000000",
          "100851.500000",
          "100854.000000",
          "100856.500000",
          "100859.000000",
          "100901.500000",
          "100904.500000",
          "100907.000000",
          "100909.500000",
          "100912.000000",
          "100914.500000",
          "100917.500000",
          "100920.000000",
          "100922.500000",
          "100925.000000",
          "100927.500000",
          "100930.500000",
          "100933.000000",
          "100935.500000",
          "100938.000000",
          "100940.500000",
          "100943.500000",
          "100946.000000",
          "100948.500000",
          "100951.000000",
          "100954.000000",
          "100956.500000",
          "100959.000000",
          "101001.500000",
          "101004.000000",
          "101006.500000",
          "101009.500000",
          "101012.000000",
          "101014.500000",
          "101017.000000",
          "101019.500000",
          "101022.500000",
          "101025.000000",
          "101027.500000",
          "101030.000000",
          "101033.000000",
          "101035.500000",
          "101038.000000",
          "101040.500000",
          "101043.000000",
          "101045.500000",
          "101048.500000",
          "101051.000000",
          "101053.500000",
          "101056.000000",
          "101059.000000",
          "101101.500000",
          "101104.000000",
          "101106.500000",
          "101109.000000",
          "101111.500000",
          "101114.500000",
          "101117.000000",
          "101119.500000",
          "101122.000000",
          "101125.000000",
          "101127.500000",
          "101130.000000",
          "101132.500000",
          "101135.000000",
          "101137.500000",
          "101140.500000",
          "101143.000000",
          "101145.500000",
          "101148.000000",
          "101151.000000",
          "101153.500000",
          "101156.000000",
          "101158.500000",
          "101201.000000",
          "101203.500000",
          "101206.500000",
          "101209.000000",
          "101211.500000",
          "101214.000000",
          "101216.500000",
          "101219.500000",
          "101222.000000",
          "101224.500000",
          "101227.000000",
          "101229.500000",
          "101232.500000",
          "101235.000000",
          "101237.500000",
          "101240.000000",
          "101242.500000",
          "101245.500000",
          "101248.000000",
          "101250.500000",
          "101253.000000",
          "101255.500000",
          "101258.500000",
          "101301.000000",
          "101303.500000",
          "101306.000000",
          "101308.500000",
          "101311.500000",
          "101314.000000",
          "101316.500000",
          "101319.000000",
          "101321.500000",
          "101324.500000",
          "101327.000000",
          "101329.500000",
          "101332.000000",
          "101334.500000",
          "101337.500000",
          "101340.000000",
          "101342.500000",
          "101345.000000",
          "101347.500000",
          "101350.500000",
          "101353.000000",
          "101355.500000",
          "101358.000000",
          "101400.500000",
          "101403.500000",
          "101406.000000",
          "101408.500000",
          "101411.000000",
          "101413.500000",
          "101416.500000",
          "101419.000000",
          "101421.500000",
          "101424.000000",
          "101426.500000",
          "101429.500000",
          "101432.000000",
          "101434.500000",
          "101437.000000",
          "101439.500000",
          "101442.500000",
          "101445.000000",
          "101447.500000",
          "101454.875000"
        ],
        "InstanceNumber": [
          1,
          2,
          3,
          4,
          5,
          6,
          7,
          8,
          9,
          10,
          11,
          12,
          13,
          14,
          15,
          16,
          17,
          18,
          19,
          20,
          21,
          22,
          23,
          24,
          25,
          26,
          27,
          28,
          29,
          30,
          31,
          32,
          33,
          34,
          35,
          36,
          37,
          38,
          39,
          40,
          41,
          42,
          43,
          44,
          45,
          46,
          47,
          48,
          49,
          50,
          51,
          52,
          53,
          54,
          55,
          56,
          57,
          58,
          59,
          60,
          61,
          62,
          63,
          64,
          65,
          66,
          67,
          68,
          69,
          70,
          71,
          72,
          73,
          74,
          75,
          76,
          77,
          78,
          79,
          80,
          81,
          82,
          83,
          84,
          85,
          86,
          87,
          88,
          89,
          90,
          91,
          92,
          93,
          94,
          95,
          96,
          97,
          98,
          99,
          100,
          101,
          102,
          103,
          104,
          105,
          106,
          107,
          108,
          109,
          110,
          111,
          112,
          113,
          114,
          115,
          116,
          117,
          118,
          119,
          120,
          121,
          122,
          123,
          124,
          125,
          126,
          127,
          128,
          129,
          130,
          131,
          132,
          133,
          134,
          135,
          136,
          137,
          138,
          139,
          140,
          141,
          142,
          143,
          144,
          145,
          146,
          147,
          148,
          149,
          150
        ],
        "WindowCenter": [
          824.0,
          823.0,
          824.0,
          824.0,
          822.0,
          822.0,
          822.0,
          823.0,
          823.0,
          821.0,
          822.0,
          824.0,
          821.0,
          821.0,
          822.0,
          822.0,
          821.0,
          821.0,
          822.0,
          823.0,
          823.0,
          823.0,
          823.0,
          824.0,
          824.0,
          823.0,
          823.0,
          825.0,
          825.0,
          822.0,
          821.0,
          822.0,
          822.0,
          823.0,
          826.0,
          825.0,
          822.0,
          822.0,
          822.0,
          821.0,
          824.0,
          824.0,
          821.0,
          821.0,
          823.0,
          822.0,
          821.0,
          823.0,
          825.0,
          823.0,
          821.0,
          821.0,
          823.0,
          823.0,
          824.0,
          823.0,
          822.0,
          822.0,
          823.0,
          823.0,
          823.0,
          822.0,
          820.0,
          821.0,
          821.0,
          821.0,
          821.0,
          821.0,
          820.0,
          821.0,
          821.0,
          821.0,
          824.0,
          824.0,
          824.0,
          821.0,
          822.0,
          823.0,
          825.0,
          823.0,
          823.0,
          823.0,
          824.0,
          823.0,
          823.0,
          823.0,
          823.0,
          821.0,
          821.0,
          823.0,
          825.0,
          823.0,
          821.0,
          822.0,
          822.0,
          821.0,
          820.0,
          822.0,
          823.0,
          822.0,
          823.0,
          821.0,
          820.0,
          820.0,
          822.0,
          823.0,
          821.0,
          820.0,
          821.0,
          823.0,
          822.0,
          820.0,
          821.0,
          821.0,
          821.0,
          822.0,
          822.0,
          821.0,
          822.0,
          823.0,
          824.0,
          822.0,
          822.0,
          823.0,
          823.0,
          823.0,
          822.0,
          822.0,
          823.0,
          822.0,
          821.0,
          821.0,
          823.0,
          823.0,
          822.0,
          821.0,
          821.0,
          820.0,
          822.0,
          822.0,
          821.0,
          820.0,
          821.0,
          823.0,
          825.0,
          821.0,
          820.0,
          820.0,
          819.0,
          821.0
        ],
        "WindowWidth": [
          1857.0,
          1855.0,
          1856.0,
          1858.0,
          1852.0,
          1851.0,
          1849.0,
          1855.0,
          1855.0,
          1847.0,
          1850.0,
          1857.0,
          1848.0,
          1846.0,
          1853.0,
          1850.0,
          1846.0,
          1847.0,
          1849.0,
          1853.0,
          1854.0,
          1851.0,
          1854.0,
          1858.0,
          1856.0,
          1853.0,
          1855.0,
          1862.0,
          1859.0,
          1849.0,
          1848.0,
          1851.0,
          1851.0,
          1855.0,
          1864.0,
          1860.0,
          1850.0,
          1850.0,
          1852.0,
          1849.0,
          1856.0,
          1856.0,
          1848.0,
          1848.0,
          1853.0,
          1851.0,
          1849.0,
          1853.0,
          1861.0,
          1854.0,
          1847.0,
          1849.0,
          1855.0,
          1854.0,
          1858.0,
          1853.0,
          1850.0,
          1852.0,
          1854.0,
          1855.0,
          1854.0,
          1848.0,
          1845.0,
          1848.0,
          1847.0,
          1848.0,
          1849.0,
          1848.0,
          1844.0,
          1848.0,
          1849.0,
          1849.0,
          1858.0,
          1857.0,
          1856.0,
          1849.0,
          1850.0,
          1854.0,
          1859.0,
          1854.0,
          1852.0,
          1855.0,
          1858.0,
          1852.0,
          1852.0,
          1854.0,
          1852.0,
          1847.0,
          1846.0,
          1854.0,
          1858.0,
          1853.0,
          1848.0,
          1848.0,
          1850.0,
          1846.0,
          1845.0,
          1850.0,
          1854.0,
          1850.0,
          1855.0,
          1846.0,
          1845.0,
          1845.0,
          1850.0,
          1853.0,
          1846.0,
          1845.0,
          1846.0,
          1853.0,
          1849.0,
          1845.0,
          1845.0,
          1846.0,
          1847.0,
          1850.0,
          1849.0,
          1847.0,
          1850.0,
          1853.0,
          1856.0,
          1850.0,
          1849.0,
          1854.0,
          1854.0,
          1852.0,
          1850.0,
          1849.0,
          1854.0,
          1849.0,
          1846.0,
          1848.0,
          1852.0,
          1852.0,
          1850.0,
          1848.0,
          1846.0,
          1845.0,
          1849.0,
          1850.0,
          1846.0,
          1844.0,
          1846.0,
          1852.0,
          1859.0,
          1846.0,
          1842.0,
          1844.0,
          1839.0,
          1847.0
        ]
      },
      "slices": {}
    }
  },
  "dummy_trs": 0,
  "dvars_nstd": 70.02197885208054,
  "dvars_std": 1.0701063008724834,
  "dvars_vstd": 1.0142325468456375,
  "efc": 0.5576948798161151,
  "fber": 387.2007751464844,
  "fd_mean": 0.08022531746908562,
  "fd_num": 4,
  "fd_perc": 2.6666666666666665,
  "fwhm_avg": 2.8460959088442706,
  "fwhm_x": 2.7293674527776086,
  "fwhm_y": 2.658438523858237,
  "fwhm_z": 3.1504817498969655,
  "gcor": 0.00412625,
  "gsr_x": -0.012350405566394329,
  "gsr_y": 0.06009126454591751,
  "provenance": {
    "md5sum": "d342014af03f4555303ba76f84815fe0",
    "settings": {
      "fd_thres": 0.2,
      "testing": false
    },
    "software": "mriqc",
    "version": "23.0.1",
    "webapi_port": null,
    "webapi_url": "https://mriqc.nimh.nih.gov/api/v1"
  },
  "size_t": 150,
  "size_x": 188,
  "size_y": 188,
  "size_z": 46,
  "snr": 2.3638415224854783,
  "spacing_tr": 2.5999999046325684,
  "spacing_x": 1.0957447290420532,
  "spacing_y": 1.0957447290420532,
  "spacing_z": 1.100000023841858,
  "summary_bg_k": 46.1512100699873,
  "summary_bg_mad": 23.346041878341534,
  "summary_bg_mean": 76.67919921875,
  "summary_bg_median": 44.09333419799805,
  "summary_bg_n": 1076489.0,
  "summary_bg_p05": 26.48666763305664,
  "summary_bg_p95": 226.3466796875,
