{
  "aor": 0.0005927333333333334,
  "aqi": 0.015562010666666666,
  "bids_meta": {
    "AcquisitionMatrixPE": 188,
    "AcquisitionNumber": 1,
    "AcquisitionTime": "09:26:43.155000",
    "BandwidthPerPixelPhaseEncode": 19.46,
    "BaseResolution": 188,
    "CogAtlasID": "TODO",
    "ConversionSoftware": "dcm2niix",
    "ConversionSoftwareVersion": "v1.0.20180606 GCC4.8.5",
    "DelayTime": 1.2,
    "DerivedVendorReportedEchoSpacing": 0.000820013,
    "DeviceSerialNumber": "18930",
    "DwellTime": 1.9e-06,
    "EchoTime": 0.02,
    "EffectiveEchoSpacing": 0.000273338,
    "FlipAngle": 80,
    "ImageComments": "Unaliased_MB2_PE2",
    "ImageOrientationPatientDICOM": [
      0.986204,
      0.163009,
      -0.0287939,
      -0.0693374,
      0.248847,
      -0.966058
    ],
    "ImageType": [
      "ORIGINAL",
      "PRIMARY",
      "M",
      "MB",
      "ND",
      "MOSAIC"
    ],
    "InPlanePhaseEncodingDirectionDICOM": "COL",
    "InstitutionAddress": "Oxfordlaan_55_Maastricht_22AAA2_Limburg_NL_6229_EV",
    "InstitutionName": "Scannexus",
    "InstitutionalDepartmentName": "MRI_7T",
    "MRAcquisitionType": "2D",
    "MagneticFieldStrength": 6.98,
    "Manufacturer": "Siemens",
    "ManufacturersModelName": "Investigational_Device_7T",
    "Modality": "MR",
    "MultibandAccelerationFactor": 2,
    "ParallelReductionFactorInPlane": 3,
    "PartialFourier": 0.75,
    "PatientPosition": "HFS",
    "PercentPhaseFOV": 100,
    "PhaseEncodingDirection": "j",
    "PhaseEncodingSteps": 141,
    "PhaseResolution": 1,
    "PixelBandwidth": 1400,
    "ProcedureStepDescription": "FeDem_Faruk",
    "ProtocolName": "cmrr_mbep2d_bold_AP_run6",
    "PulseSequenceDetails": "%CustomerSeq%_cmrr_mbep2d_bold",
    "ReceiveCoilName": "32Ch_Head_7T",
    "ReconMatrixPE": 188,
    "RepetitionTime": 2.6,
    "SAR": 0.0452191,
    "ScanOptions": "PFP_FS",
    "ScanningSequence": "EP",
    "SequenceName": "epfid2d1_188",
    "SequenceVariant": "SK_SS",
    "SeriesDescription": "cmrr_mbep2d_bold_AP_run6",
    "SeriesNumber": 15,
    "ShimSetting": [
      33,
      -58,
      487,
      457,
      -151,
      72,
      370,
      98
    ],
    "SliceThickness": 1.1,
    "SliceTiming": [
      0,
      0.735,
      0.0625,
      0.795,
      0.1225,
      0.8575,
      0.185,
      0.9175,
      0.245,
      0.9775,
      0.3075,
      1.04,
      0.3675,
      1.1,
      0.4275,
      1.1625,
      0.49,
      1.2225,
      0.55,
      1.285,
      0.6125,
      1.345,
      0.6725,
      0,
      0.735,
      0.0625,
      0.795,
      0.1225,
      0.8575,
      0.185,
      0.9175,
      0.245,
      0.9775,
      0.3075,
      1.04,
      0.3675,
      1.1,
      0.4275,
      1.1625,
      0.49,
      1.2225,
      0.55,
      1.285,
      0.6125,
      1.345,
      0.6725
    ],
    "SoftwareVersions": "syngo_MR_B17",
    "SpacingBetweenSlices": 1.1,
    "StationName": "MRC18930",
    "TaskName": "auditory",
    "TotalReadoutTime": 0.0511141,
    "TxRefAmp": 181,
    "dataset": "ds001942",
    "dcmmeta_affine": [
      [
        -1.0806282758712769,
        -0.07597606629133224,
        0.1653413474559784,
        105.7924575805664
      ],
      [
        -0.1786157190799713,
        0.2726731300354004,
        -1.0501993894577026,
        38.38575744628906
      ],
      [
        -0.031550802290439606,
        1.0585525035858154,
        0.2823885679244995,
        -104.43102264404297
      ],
      [
        0.0,
        0.0,
        0.0,
        1.0
      ]
    ],
    "dcmmeta_reorient_transform": [
      [
        0.0,
        -1.0,
        0.0,
        187.0
      ],
      [
        1.0,
        0.0,
        0.0,
        0.0
      ],
      [
        0.0,
        0.0,
        1.0,
        0.0
      ],
      [
        0.0,
        0.0,
        0.0,
        1.0
      ]
    ],
    "dcmmeta_shape": [
      188,
      188,
      46,
      150
    ],
    "dcmmeta_slice_dim": 2,
    "dcmmeta_version": 0.6,
    "global": {
      "const": {
        "AcquisitionMatrix": [
          188,
          0,
          0,
          188
        ],
        "AngioFlag": "N",
        "BitsAllocated": 16,
        "BitsStored": 12,
        "Columns": 1316,
        "EchoNumbers": 1,
        "EchoTime": 20.0,
        "EchoTrainLength": 1,
        "FlipAngle": 80.0,
        "HighBit": 11,
        "ImageOrientationPatient": [
          0.98620440882072,
          0.16300850687845,
          -0.0287939352612,
          -0.0693373782187,
          0.24884730227185,
          -0.9660576318905
        ],
        "ImagePositionPatient": [
          -658.20878620656,
          -343.90253067471,
          708.33660116918
        ],
        "ImageType": [
          "ORIGINAL",
          "PRIMARY",
          "M",
          "MB",
          "ND",
          "MOSAIC"
        ],
        "ImagedNucleus": "1H",
        "ImagingFrequency": 297.205651,
        "InPlanePhaseEncodingDirection": "COL",
        "LargestImagePixelValue": 4095,
        "MRAcquisitionType": "2D",
        "MagneticFieldStrength": 6.98,
        "Manufacturer": "SIEMENS",
        "ManufacturerModelName": "Investigational_Device_7T",
        "Modality": "MR",
        "NumberOfAverages": 1.0,
        "NumberOfPhaseEncodingSteps": 141,
        "PercentPhaseFieldOfView": 100.0,
        "PercentSampling": 100.0,
        "PerformedProcedureStepStartTime": "082549.906000",
        "PhotometricInterpretation": "MONOCHROME2",
        "PixelBandwidth": 1400.0,
        "PixelRepresentation": 0,
        "PixelSpacing": [
          1.0957447290421,
          1.0957447290421
        ],
        "ProtocolName": "cmrr_mbep2d_bold_AP_run6",
        "RepetitionTime": 2600.0,
        "Rows": 1316,
        "SAR": 0.04521908505946,
        "SamplesPerPixel": 1,
        "ScanOptions": [
          "PFP",
          "FS"
        ],
        "ScanningSequence": "EP",
        "SequenceName": "epfid2d1_188",
        "SequenceVariant": [
          "SK",
          "SS"
        ],
        "SeriesDescription": "cmrr_mbep2d_bold_AP_run6",
        "SeriesNumber": 15,
        "SeriesTime": "092653.359000",
        "SliceLocation": -47.555418439178,
        "SliceThickness": 1.1000000238419,
        "SmallestImagePixelValue": 0,
        "SoftwareVersions": "syngo MR B17",
        "SpacingBetweenSlices": 1.0999999671714,
        "SpecificCharacterSet": "ISO_IR 100",
        "StudyID": "1",
        "StudyTime": "082549.843000",
        "TransmitCoilName": "32Ch_Head_7T",
        "VariableFlipAngleFlag": "N",
        "WindowCenterWidthExplanation": "Algo1",
        "dBdt": 0.0
      },
      "slices": {}
    },
    "modality": "bold",
    "run_id": 6,
    "session_id": "SES02",
    "subject_id": "S03",
    "task_id": "auditory",
    "time": {
      "samples": {
        "AcquisitionNumber": [
          1,
          2,
          3,
          4,
          5,
          6,
          7,
          8,
          9,
          10,
          11,
          12,
          13,
          14,
          15,
          16,
          17,
          18,
          19,
          20,
          21,
          22,
          23,
          24,
          25,
          26,
          27,
          28,
          29,
          30,
          31,
          32,
          33,
          34,
          35,
          36,
          37,
          38,
          39,
          40,
          41,
          42,
          43,
          44,
          45,
          46,
          47,
          48,
          49,
          50,
          51,
          52,
          53,
          54,
          55,
          56,
          57,
          58,
          59,
          60,
          61,
          62,
          63,
          64,
          65,
          66,
          67,
          68,
          69,
          70,
          71,
          72,
          73,
          74,
          75,
          76,
          77,
          78,
          79,
          80,
          81,
          82,
          83,
          84,
          85,
          86,
          87,
          88,
          89,
          90,
          91,
          92,
          93,
          94,
          95,
          96,
          97,
          98,
          99,
          100,
          101,
          102,
          103,
          104,
          105,
          106,
          107,
          108,
          109,
          110,
          111,
          112,
          113,
          114,
          115,
          116,
          117,
          118,
          119,
          120,
          121,
          122,
          123,
          124,
          125,
          126,
          127,
          128,
          129,
          130,
          131,
          132,
          133,
          134,
          135,
          136,
          137,
          138,
          139,
          140,
          141,
          142,
          143,
          144,
          145,
          146,
          147,
          148,
          149,
          150
        ],
        "AcquisitionTime": [
          "092643.155000",
          "092645.767500",
          "092648.377500",
          "092650.987500",
          "092653.597500",
          "092656.207500",
          "092658.817500",
          "092701.430000",
          "092704.040000",
          "092706.650000",
          "092709.260000",
          "092711.870000",
          "092714.480000",
          "092717.092500",
          "092719.702500",
          "092722.312500",
          "092724.922500",
          "092727.532500",
          "092730.145000",
          "092732.755000",
          "092735.365000",
          "092737.975000",
          "092740.585000",
          "092743.195000",
          "092745.807500",
          "092748.417500",
          "092751.027500",
          "092753.637500",
          "092756.247500",
          "092758.857500",
          "092801.470000",
          "092804.080000",
          "092806.690000",
          "092809.300000",
          "092811.910000",
          "092814.522500",
          "092817.132500",
          "092819.742500",
          "092822.352500",
          "092824.962500",
          "092827.572500",
          "092830.185000",
          "092832.795000",
          "092835.405000",
          "092838.015000",
          "092840.625000",
          "092843.235000",
          "092845.847500",
          "092848.457500",
          "092851.067500",
          "092853.677500",
          "092856.287500",
          "092858.900000",
          "092901.510000",
          "092904.120000",
          "092906.730000",
          "092909.340000",
          "092911.950000",
          "092914.562500",
          "092917.172500",
          "092919.782500",
          "092922.392500",
          "092925.002500",
          "092927.612500",
          "092930.225000",
          "092932.835000",
          "092935.445000",
          "092938.055000",
          "092940.665000",
          "092943.277500",
          "092945.887500",
          "092948.497500",
          "092951.107500",
          "092953.717500",
          "092956.327500",
          "092958.940000",
          "093001.550000",
          "093004.160000",
          "093006.770000",
          "093009.380000",
          "093011.990000",
          "093014.602500",
          "093017.212500",
          "093019.822500",
          "093022.432500",
          "093025.042500",
          "093027.655000",
          "093030.265000",
          "093032.875000",
          "093035.485000",
          "093038.095000",
          "093040.705000",
          "093043.317500",
          "093045.927500",
          "093048.537500",
          "093051.147500",
          "093053.757500",
          "093056.367500",
          "093058.980000",
          "093101.590000",
          "093104.200000",
          "093106.810000",
          "093109.420000",
          "093112.032500",
          "093114.642500",
          "093117.252500",
          "093119.862500",
          "093122.472500",
          "093125.082500",
          "093127.695000",
          "093130.305000",
          "093132.915000",
          "093135.525000",
          "093138.135000",
          "093140.745000",
          "093143.357500",
          "093145.967500",
          "093148.577500",
          "093151.187500",
          "093153.797500",
          "093156.410000",
          "093159.020000",
          "093201.630000",
          "093204.240000",
          "093206.850000",
          "093209.460000",
          "093212.072500",
          "093214.682500",
          "093217.292500",
          "093219.902500",
          "093222.512500",
          "093225.122500",
          "093227.735000",
          "093230.345000",
          "093232.955000",
          "093235.565000",
          "093238.175000",
          "093240.787500",
          "093243.397500",
          "093246.007500",
          "093248.617500",
          "093251.227500",
          "093253.837500",
          "093256.450000",
          "093259.060000",
          "093301.670000",
          "093304.280000",
          "093306.890000",
          "093309.500000",
          "093312.112500"
        ],
        "ContentTime": [
          "092653.359000",
          "092653.843000",
          "092654.343000",
          "092656.343000",
          "092658.843000",
          "092701.343000",
          "092704.343000",
          "092706.843000",
          "092709.343000",
          "092711.843000",
          "092714.343000",
          "092717.343000",
          "092719.843000",
          "092722.343000",
          "092724.843000",
          "092727.843000",
          "092730.343000",
          "092732.843000",
          "092735.343000",
          "092737.843000",
          "092740.843000",
          "092743.343000",
          "092745.843000",
          "092748.343000",
          "092750.843000",
          "092753.343000",
          "092756.343000",
          "092758.843000",
          "092801.343000",
          "092803.843000",
          "092806.343000",
          "092809.343000",
          "092811.843000",
          "092814.343000",
          "092816.843000",
          "092819.343000",
          "092822.343000",
          "092824.843000",
          "092827.343000",
          "092829.843000",
          "092832.343000",
          "092835.343000",
          "092837.843000",
          "092840.343000",
          "092842.843000",
          "092845.343000",
          "092848.343000",
          "092850.843000",
          "092853.343000",
          "092855.843000",
          "092858.343000",
          "092901.343000",
          "092903.843000",
          "092906.343000",
          "092908.843000",
          "092911.343000",
          "092914.343000",
          "092916.843000",
          "092919.343000",
          "092921.843000",
          "092924.343000",
          "092927.343000",
          "092929.843000",
          "092932.343000",
          "092934.843000",
          "092937.843000",
          "092940.343000",
          "092942.843000",
          "092945.343000",
          "092947.843000",
          "092950.343000",
          "092953.343000",
          "092955.843000",
          "092958.343000",
          "093000.843000",
          "093003.343000",
          "093006.343000",
          "093008.843000",
          "093011.343000",
          "093013.843000",
          "093016.343000",
          "093019.343000",
          "093021.843000",
          "093024.343000",
          "093026.843000",
          "093029.343000",
          "093032.343000",
          "093034.843000",
          "093037.343000",
          "093039.843000",
          "093042.343000",
          "093045.343000",
          "093047.843000",
          "093050.343000",
          "093052.843000",
          "093055.343000",
          "093058.343000",
          "093100.843000",
          "093103.343000",
          "093105.843000",
          "093108.343000",
          "093111.343000",
          "093113.843000",
          "093116.343000",
          "093118.843000",
          "093121.343000",
          "093124.343000",
          "093126.843000",
          "093129.343000",
          "093131.843000",
          "093134.343000",
          "093137.343000",
          "093139.843000",
          "093142.343000",
          "093144.843000",
          "093147.343000",
          "093150.343000",
          "093152.843000",
          "093155.343000",
          "093157.843000",
          "093200.343000",
          "093203.343000",
          "093205.843000",
          "093208.343000",
          "093210.843000",
          "093213.343000",
          "093216.343000",
          "093218.843000",
          "093221.343000",
          "093223.843000",
          "093226.343000",
          "093229.343000",
          "093231.843000",
          "093234.343000",
          "093236.843000",
          "093239.343000",
          "093242.343000",
          "093244.843000",
          "093247.343000",
          "093249.843000",
          "093252.343000",
          "093255.343000",
          "093257.843000",
          "093300.343000",
          "093302.843000",
          "093305.343000",
          "093308.343000",
          "093310.843000",
          "093313.343000",
          "093320.734000"
        ],
        "InstanceCreationTime": [
          "092653.359000",
          "092653.843000",
          "092654.343000",
          "092656.343000",
          "092658.843000",
          "092701.343000",
          "092704.343000",
          "092706.843000",
          "092709.343000",
          "092711.843000",
          "092714.343000",
          "092717.343000",
          "092719.843000",
          "092722.343000",
          "092724.843000",
          "092727.843000",
          "092730.343000",
          "092732.843000",
          "092735.343000",
          "092737.843000",
          "092740.843000",
          "092743.343000",
          "092745.843000",
          "092748.343000",
          "092750.843000",
          "092753.343000",
          "092756.343000",
          "092758.843000",
          "092801.343000",
          "092803.843000",
          "092806.343000",
          "092809.343000",
          "092811.843000",
          "092814.343000",
          "092816.843000",
          "092819.343000",
          "092822.343000",
          "092824.843000",
          "092827.343000",
          "092829.843000",
          "092832.343000",
          "092835.343000",
          "092837.843000",
          "092840.343000",
          "092842.843000",
          "092845.343000",
          "092848.343000",
          "092850.843000",
          "092853.343000",
          "092855.843000",
          "092858.343000",
          "092901.343000",
          "092903.843000",
          "092906.343000",
          "092908.843000",
          "092911.343000",
          "092914.343000",
          "092916.843000",
          "092919.343000",
          "092921.843000",
          "092924.343000",
          "092927.343000",
          "092929.843000",
          "092932.343000",
          "092934.843000",
          "092937.843000",
          "092940.343000",
          "092942.843000",
          "092945.343000",
          "092947.843000",
          "092950.343000",
          "092953.343000",
          "092955.843000",
          "092958.343000",
          "093000.843000",
          "093003.343000",
          "093006.343000",
          "093008.843000",
          "093011.343000",
          "093013.843000",
          "093016.343000",
          "093019.343000",
          "093021.843000",
          "093024.343000",
          "093026.843000",
          "093029.343000",
          "093032.343000",
          "093034.843000",
          "093037.343000",
          "093039.843000",
          "093042.343000",
          "093045.343000",
          "093047.843000",
          "093050.343000",
          "093052.843000",
          "093055.343000",
          "093058.343000",
          "093100.843000",
          "093103.343000",
          "093105.843000",
          "093108.343000",
          "093111.343000",
          "093113.843000",
          "093116.343000",
          "093118.843000",
          "093121.343000",
          "093124.343000",
          "093126.843000",
          "093129.343000",
          "093131.843000",
          "093134.343000",
          "093137.343000",
          "093139.843000",
          "093142.343000",
          "093144.843000",
          "093147.343000",
          "093150.343000",
          "093152.843000",
          "093155.343000",
          "093157.843000",
          "093200.343000",
          "093203.343000",
          "093205.843000",
          "093208.343000",
          "093210.843000",
          "093213.343000",
          "093216.343000",
          "093218.843000",
          "093221.343000",
          "093223.843000",
          "093226.343000",
          "093229.343000",
          "093231.843000",
          "093234.343000",
          "093236.843000",
          "093239.343000",
          "093242.343000",
          "093244.843000",
          "093247.343000",
          "093249.843000",
          "093252.343000",
          "093255.343000",
          "093257.843000",
          "093300.343000",
          "093302.843000",
          "093305.343000",
          "093308.343000",
          "093310.843000",
          "093313.343000",
          "093320.734000"
        ],
        "InstanceNumber": [
          1,
          2,
          3,
          4,
          5,
          6,
          7,
          8,
          9,
          10,
          11,
          12,
          13,
          14,
          15,
          16,
          17,
          18,
          19,
          20,
          21,
          22,
          23,
          24,
          25,
          26,
          27,
          28,
          29,
          30,
          31,
          32,
          33,
          34,
          35,
          36,
          37,
          38,
          39,
          40,
          41,
          42,
          43,
          44,
          45,
          46,
          47,
          48,
          49,
          50,
          51,
          52,
          53,
          54,
          55,
          56,
          57,
          58,
          59,
          60,
          61,
          62,
          63,
          64,
          65,
          66,
          67,
          68,
          69,
          70,
          71,
          72,
          73,
          74,
          75,
          76,
          77,
          78,
          79,
          80,
          81,
          82,
          83,
          84,
          85,
          86,
          87,
          88,
          89,
          90,
          91,
          92,
          93,
          94,
          95,
          96,
          97,
          98,
          99,
          100,
          101,
          102,
          103,
          104,
          105,
          106,
          107,
          108,
          109,
          110,
          111,
          112,
          113,
          114,
          115,
          116,
          117,
          118,
          119,
          120,
          121,
          122,
          123,
          124,
          125,
          126,
          127,
          128,
          129,
          130,
          131,
          132,
          133,
          134,
          135,
          136,
          137,
          138,
          139,
          140,
          141,
          142,
          143,
          144,
          145,
          146,
          147,
          148,
          149,
          150
        ],
        "WindowCenter": [
          828.0,
          825.0,
          824.0,
          824.0,
          824.0,
          825.0,
          825.0,
          825.0,
          825.0,
          826.0,
          825.0,
          825.0,
          824.0,
          823.0,
          823.0,
          823.0,
          825.0,
          823.0,
          824.0,
          826.0,
          826.0,
          824.0,
          825.0,
          827.0,
          826.0,
          824.0,
          826.0,
          825.0,
          825.0,
          825.0,
          826.0,
          824.0,
          824.0,
          825.0,
          824.0,
          824.0,
          824.0,
          826.0,
          825.0,
          823.0,
          824.0,
          825.0,
          824.0,
          823.0,
          825.0,
          826.0,
          824.0,
          824.0,
          825.0,
          826.0,
          823.0,
          824.0,
          825.0,
          825.0,
          826.0,
          826.0,
          825.0,
          826.0,
          826.0,
          825.0,
          825.0,
          825.0,
          825.0,
          823.0,
          825.0,
          825.0,
          824.0,
          823.0,
          826.0,
          826.0,
          824.0,
          825.0,
          824.0,
          823.0,
          823.0,
          825.0,
          825.0,
          826.0,
          825.0,
          825.0,
          824.0,
          825.0,
          823.0,
          825.0,
          825.0,
          823.0,
          827.0,
          826.0,
          825.0,
          826.0,
          825.0,
          825.0,
          826.0,
          828.0,
          826.0,
          824.0,
          825.0,
          827.0,
          825.0,
          824.0,
          826.0,
          825.0,
          825.0,
          824.0,
          826.0,
          826.0,
          826.0,
          824.0,
          824.0,
          826.0,
          826.0,
          825.0,
          825.0,
          826.0,
          825.0,
          824.0,
          823.0,
          824.0,
          825.0,
          825.0,
          825.0,
          826.0,
          825.0,
          825.0,
          825.0,
          826.0,
          826.0,
          825.0,
          825.0,
          825.0,
          825.0,
          825.0,
          825.0,
          825.0,
          824.0,
          824.0,
          824.0,
          825.0,
          825.0,
          824.0,
          825.0,
          824.0,
          824.0,
          825.0,
          826.0,
          826.0,
          826.0,
          827.0,
          826.0,
          825.0
        ],
        "WindowWidth": [
          1868.0,
          1858.0,
          1855.0,
          1855.0,
          1857.0,
          1858.0,
          1860.0,
          1859.0,
          1858.0,
          1861.0,
          1858.0,
          1860.0,
          1856.0,
          1853.0,
          1850.0,
          1852.0,
          1858.0,
          1852.0,
          1854.0,
          1861.0,
          1860.0,
          1856.0,
          1858.0,
          1863.0,
          1860.0,
          1856.0,
          1861.0,
          1857.0,
          1857.0,
          1860.0,
          1860.0,
          1856.0,
          1854.0,
          1857.0,
          1857.0,
          1855.0,
          1856.0,
          1861.0,
          1859.0,
          1853.0,
          1855.0,
          1860.0,
          1855.0,
          1853.0,
          1860.0,
          1862.0,
          1856.0,
          1854.0,
          1860.0,
          1863.0,
          1853.0,
          1855.0,
          1859.0,
          1858.0,
          1862.0,
          1862.0,
          1859.0,
          1861.0,
          1861.0,
          1859.0,
          1858.0,
          1860.0,
          1857.0,
          1854.0,
          1858.0,
          1858.0,
          1854.0,
          1853.0,
          1861.0,
          1861.0,
          1857.0,
          1859.0,
          1856.0,
          1852.0,
          1853.0,
          1860.0,
          1858.0,
          1863.0,
          1859.0,
          1857.0,
          1857.0,
          1858.0,
          1852.0,
          1859.0,
          1858.0,
          1854.0,
          1864.0,
          1862.0,
          1859.0,
          1861.0,
          1860.0,
          1859.0,
          1862.0,
          1868.0,
          1861.0,
          1856.0,
          1859.0,
          1866.0,
          1858.0,
          1855.0,
          1863.0,
          1859.0,
          1857.0,
          1856.0,
          1860.0,
          1861.0,
          1861.0,
          1855.0,
          1855.0,
          1863.0,
          1863.0,
          1857.0,
          1858.0,
          1863.0,
          1858.0,
          1855.0,
          1854.0,
          1855.0,
          1858.0,
          1859.0,
          1859.0,
          1861.0,
          1860.0,
          1858.0,
          1860.0,
          1862.0,
          1860.0,
          1857.0,
          1859.0,
          1858.0,
          1858.0,
          1858.0,
          1858.0,
          1858.0,
          1856.0,
          1854.0,
          1855.0,
          1858.0,
          1857.0,
          1854.0,
          1858.0,
          1856.0,
          1856.0,
          1860.0,
          1861.0,
          1861.0,
          1862.0,
          1865.0,
          1864.0,
          1859.0
        ]
      },
      "slices": {}
    }
  },
  "dummy_trs": 0,
  "dvars_nstd": 70.61113465087249,
  "dvars_std": 1.0630836710738258,
  "dvars_vstd": 1.0067735134899327,
  "efc": 0.5584807113163079,
  "fber": 385.86956787109375,
  "fd_mean": 0.09725397421164338,
  "fd_num": 6,
  "fd_perc": 4.0,
  "fwhm_avg": 2.8575046816625664,
  "fwhm_x": 2.7329905594143806,
  "fwhm_y": 2.668669008845192,
  "fwhm_z": 3.1708544767281257,
  "gcor": 0.00216513,
  "gsr_x": -0.014657078310847282,
  "gsr_y": 0.06360127776861191,
  "provenance": {
    "md5sum": "fa80f068cf5e1c804b60e60e6475d01e",
    "settings": {
      "fd_thres": 0.2,
      "testing": false
    },
    "software": "mriqc",
    "version": "22.0.0rc1",
    "webapi_port": null,
    "webapi_url": "https://mriqc.nimh.nih.gov/api/v1"
  },
  "size_t": 150,
  "size_x": 188,
  "size_y": 188,
  "size_z": 46,
  "snr": 2.3603088576308813,
  "spacing_tr": 2.5999999046325684,
  "spacing_x": 1.0957447290420532,
  "spacing_y": 1.0957447290420532,
  "spacing_z": 1.100000023841858,
  "summary_bg_k": 45.012915350349445,
  "summary_bg_mad": 23.63267732693499,
  "summary_bg_mean": 77.16032409667969,
  "summary_bg_median": 44.31999969482422,
  "summary_bg_n": 1075217.0,
  "summary_bg_p05": 26.68000030517578,
