{
  "aor": 0.0006088666666666666,
  "aqi": 0.013703313333333333,
  "bids_meta": {
    "AcquisitionMatrixPE": 188,
    "AcquisitionNumber": 1,
    "AcquisitionTime": "15:47:21.275000",
    "BandwidthPerPixelPhaseEncode": 19.46,
    "BaseResolution": 188,
    "ConversionSoftware": "dcm2niix",
    "ConversionSoftwareVersion": "v1.0.20180606 GCC4.8.5",
    "DelayTime": 1.2,
    "DerivedVendorReportedEchoSpacing": 0.000820013,
    "DeviceSerialNumber": "18930",
    "DwellTime": 1.9e-06,
    "EchoTime": 0.02,
    "EffectiveEchoSpacing": 0.000273338,
    "FlipAngle": 80,
    "ImageComments": "Unaliased_MB2_PE2",
    "ImageOrientationPatientDICOM": [
      0.999173,
      0.0356399,
      -0.0195491,
      -0.0249324,
      0.157486,
      -0.987206
    ],
    "ImageType": [
      "ORIGINAL",
      "PRIMARY",
      "M",
      "MB",
      "ND",
      "MOSAIC"
    ],
    "InPlanePhaseEncodingDirectionDICOM": "COL",
    "InstitutionAddress": "Oxfordlaan_55_Maastricht_753AAF_Limburg_NL_6229_EV",
    "InstitutionName": "Scannexus",
    "InstitutionalDepartmentName": "MRI_7T",
    "MRAcquisitionType": "2D",
    "MagneticFieldStrength": 6.98,
    "Manufacturer": "Siemens",
    "ManufacturersModelName": "Investigational_Device_7T",
    "Modality": "MR",
    "MultibandAccelerationFactor": 2,
    "ParallelReductionFactorInPlane": 3,
    "PartialFourier": 0.75,
    "PatientPosition": "HFS",
    "PercentPhaseFOV": 100,
    "PhaseEncodingDirection": "j",
    "PhaseEncodingSteps": 141,
    "PhaseResolution": 1,
    "PixelBandwidth": 1400,
    "ProcedureStepDescription": "FeDem_Faruk",
    "ProtocolName": "cmrr_mbep2d_bold_AP_run3",
    "PulseSequenceDetails": "%CustomerSeq%_cmrr_mbep2d_bold",
    "ReceiveCoilName": "32Ch_Head_7T",
    "ReconMatrixPE": 188,
    "RepetitionTime": 2.6,
    "SAR": 0.0631729,
    "ScanOptions": "PFP_FS",
    "ScanningSequence": "EP",
    "SequenceName": "epfid2d1_188",
    "SequenceVariant": "SK_SS",
    "SeriesDescription": "cmrr_mbep2d_bold_AP_run3",
    "SeriesNumber": 15,
    "ShimSetting": [
      54,
      -36,
      345,
      608,
      -240,
      461,
      258,
      248
    ],
    "SliceThickness": 1.1,
    "SliceTiming": [
      0,
      0.7325,
      0.06,
      0.7925,
      0.1225,
      0.855,
      0.1825,
      0.915,
      0.245,
      0.9775,
      0.305,
      1.0375,
      0.365,
      1.1,
      0.4275,
      1.16,
      0.4875,
      1.2225,
      0.55,
      1.2825,
      0.61,
      1.3425,
      0.6725,
      0,
      0.7325,
      0.06,
      0.7925,
      0.1225,
      0.855,
      0.1825,
      0.915,
      0.245,
      0.9775,
      0.305,
      1.0375,
      0.365,
      1.1,
      0.4275,
      1.16,
      0.4875,
      1.2225,
      0.55,
      1.2825,
      0.61,
      1.3425,
      0.6725
    ],
    "SoftwareVersions": "syngo_MR_B17",
    "SpacingBetweenSlices": 1.1,
    "StationName": "MRC18930",
    "TaskName": "auditory",
    "TotalReadoutTime": 0.0511141,
    "TxRefAmp": 195,
    "dataset": "ds001942",
    "dcmmeta_affine": [
      [
        -1.094839096069336,
        -0.027319511398673058,
        0.03531578183174133,
        101.3092041015625
      ],
      [
        -0.03905225917696953,
        0.17256446182727814,
        -1.0855656862258911,
        30.128551483154297
      ],
      [
        -0.02142079547047615,
        1.0817261934280396,
        0.1740688681602478,
        -117.70782470703125
      ],
      [
        0.0,
        0.0,
        0.0,
        1.0
      ]
    ],
    "dcmmeta_reorient_transform": [
      [
        0.0,
        -1.0,
        0.0,
        187.0
      ],
      [
        1.0,
        0.0,
        0.0,
        0.0
      ],
      [
        0.0,
        0.0,
        1.0,
        0.0
      ],
      [
        0.0,
        0.0,
        0.0,
        1.0
      ]
    ],
    "dcmmeta_shape": [
      188,
      188,
      46,
      150
    ],
    "dcmmeta_slice_dim": 2,
    "dcmmeta_version": 0.6,
    "global": {
      "const": {
        "AcquisitionMatrix": [
          188,
          0,
          0,
          188
        ],
        "AngioFlag": "N",
        "BitsAllocated": 16,
        "BitsStored": 12,
        "Columns": 1316,
        "EchoNumbers": 1,
        "EchoTime": 20.0,
        "EchoTrainLength": 1,
        "FlipAngle": 80.0,
        "HighBit": 11,
        "ImageOrientationPatient": [
          0.9991734731755,
          0.03563992392724,
          -0.0195490747831,
          -0.0249323689402,
          0.15748600827289,
          -0.9872064293638
        ],
        "ImagePositionPatient": [
          -698.28148280732,
          -181.74993727346,
          706.74991415591
        ],
        "ImageType": [
          "ORIGINAL",
          "PRIMARY",
          "M",
          "MB",
          "ND",
          "MOSAIC"
        ],
        "ImagedNucleus": "1H",
        "ImagingFrequency": 297.205671,
        "InPlanePhaseEncodingDirection": "COL",
        "LargestImagePixelValue": 4095,
        "MRAcquisitionType": "2D",
        "MagneticFieldStrength": 6.98,
        "Manufacturer": "SIEMENS",
        "ManufacturerModelName": "Investigational_Device_7T",
        "Modality": "MR",
        "NumberOfAverages": 1.0,
        "NumberOfPhaseEncodingSteps": 141,
        "PercentPhaseFieldOfView": 100.0,
        "PercentSampling": 100.0,
        "PerformedProcedureStepStartTime": "150445.390000",
        "PhotometricInterpretation": "MONOCHROME2",
        "PixelBandwidth": 1400.0,
        "PixelRepresentation": 0,
        "PixelSpacing": [
          1.0957447290421,
          1.0957447290421
        ],
        "ProtocolName": "cmrr_mbep2d_bold_AP_run3",
        "RepetitionTime": 2600.0,
        "Rows": 1316,
        "SAR": 0.06317294538445,
        "SamplesPerPixel": 1,
        "ScanOptions": [
          "PFP",
          "FS"
        ],
        "ScanningSequence": "EP",
        "SequenceName": "epfid2d1_188",
        "SequenceVariant": [
          "SK",
          "SS"
        ],
        "SeriesDescription": "cmrr_mbep2d_bold_AP_run3",
        "SeriesNumber": 15,
        "SeriesTime": "154730.859000",
        "SliceLocation": -45.107250061711,
        "SliceThickness": 1.1000000238419,
        "SmallestImagePixelValue": 0,
        "SoftwareVersions": "syngo MR B17",
        "SpacingBetweenSlices": 1.1000000170425,
        "SpecificCharacterSet": "ISO_IR 100",
        "StudyID": "1",
        "StudyTime": "150445.343000",
        "TransmitCoilName": "32Ch_Head_7T",
        "VariableFlipAngleFlag": "N",
        "WindowCenterWidthExplanation": "Algo1",
        "dBdt": 0.0
      },
      "slices": {}
    },
    "modality": "bold",
    "run_id": 3,
    "session_id": "SES02",
    "subject_id": "S09",
    "task_id": "auditory",
    "time": {
      "samples": {
        "AcquisitionNumber": [
          1,
          2,
          3,
          4,
          5,
          6,
          7,
          8,
          9,
          10,
          11,
          12,
          13,
          14,
          15,
          16,
          17,
          18,
          19,
          20,
          21,
          22,
          23,
          24,
          25,
          26,
          27,
          28,
          29,
          30,
          31,
          32,
          33,
          34,
          35,
          36,
          37,
          38,
          39,
          40,
          41,
          42,
          43,
          44,
          45,
          46,
          47,
          48,
          49,
          50,
          51,
          52,
          53,
          54,
          55,
          56,
          57,
          58,
          59,
          60,
          61,
          62,
          63,
          64,
          65,
          66,
          67,
          68,
          69,
          70,
          71,
          72,
          73,
          74,
          75,
          76,
          77,
          78,
          79,
          80,
          81,
          82,
          83,
          84,
          85,
          86,
          87,
          88,
          89,
          90,
          91,
          92,
          93,
          94,
          95,
          96,
          97,
          98,
          99,
          100,
          101,
          102,
          103,
          104,
          105,
          106,
          107,
          108,
          109,
          110,
          111,
          112,
          113,
          114,
          115,
          116,
          117,
          118,
          119,
          120,
          121,
          122,
          123,
          124,
          125,
          126,
          127,
          128,
          129,
          130,
          131,
          132,
          133,
          134,
          135,
          136,
          137,
          138,
          139,
          140,
          141,
          142,
          143,
          144,
          145,
          146,
          147,
          148,
          149,
          150
        ],
        "AcquisitionTime": [
          "154721.275000",
          "154723.885000",
          "154726.495000",
          "154729.105000",
          "154731.715000",
          "154734.327500",
          "154736.937500",
          "154739.547500",
          "154742.157500",
          "154744.767500",
          "154747.380000",
          "154749.990000",
          "154752.600000",
          "154755.210000",
          "154757.820000",
          "154800.430000",
          "154803.042500",
          "154805.652500",
          "154808.262500",
          "154810.872500",
          "154813.482500",
          "154816.092500",
          "154818.705000",
          "154821.315000",
          "154823.925000",
          "154826.535000",
          "154829.145000",
          "154831.757500",
          "154834.367500",
          "154836.977500",
          "154839.587500",
          "154842.197500",
          "154844.807500",
          "154847.420000",
          "154850.030000",
          "154852.640000",
          "154855.250000",
          "154857.860000",
          "154900.470000",
          "154903.082500",
          "154905.692500",
          "154908.302500",
          "154910.912500",
          "154913.522500",
          "154916.135000",
          "154918.745000",
          "154921.355000",
          "154923.965000",
          "154926.575000",
          "154929.185000",
          "154931.797500",
          "154934.407500",
          "154937.017500",
          "154939.627500",
          "154942.237500",
          "154944.847500",
          "154947.460000",
          "154950.070000",
          "154952.680000",
          "154955.290000",
          "154957.900000",
          "155000.512500",
          "155003.122500",
          "155005.732500",
          "155008.342500",
          "155010.952500",
          "155013.562500",
          "155016.175000",
          "155018.785000",
          "155021.395000",
          "155024.005000",
          "155026.615000",
          "155029.225000",
          "155031.837500",
          "155034.447500",
          "155037.057500",
          "155039.667500",
          "155042.277500",
          "155044.890000",
          "155047.500000",
          "155050.110000",
          "155052.720000",
          "155055.330000",
          "155057.940000",
          "155100.552500",
          "155103.162500",
          "155105.772500",
          "155108.382500",
          "155110.992500",
          "155113.602500",
          "155116.215000",
          "155118.825000",
          "155121.435000",
          "155124.045000",
          "155126.655000",
          "155129.267500",
          "155131.877500",
          "155134.487500",
          "155137.097500",
          "155139.707500",
          "155142.317500",
          "155144.930000",
          "155147.540000",
          "155150.150000",
          "155152.760000",
          "155155.370000",
          "155157.980000",
          "155200.592500",
          "155203.202500",
          "155205.812500",
          "155208.422500",
          "155211.032500",
          "155213.645000",
          "155216.255000",
          "155218.865000",
          "155221.475000",
          "155224.085000",
          "155226.695000",
          "155229.307500",
          "155231.917500",
          "155234.527500",
          "155237.137500",
          "155239.747500",
          "155242.357500",
          "155244.970000",
          "155247.580000",
          "155250.190000",
          "155252.800000",
          "155255.410000",
          "155258.022500",
          "155300.632500",
          "155303.242500",
          "155305.852500",
          "155308.462500",
          "155311.072500",
          "155313.685000",
          "155316.295000",
          "155318.905000",
          "155321.515000",
          "155324.125000",
          "155326.735000",
          "155329.347500",
          "155331.957500",
          "155334.567500",
          "155337.177500",
          "155339.787500",
          "155342.400000",
          "155345.010000",
          "155347.620000",
          "155350.230000"
        ],
        "ContentTime": [
          "154730.859000",
          "154730.859000",
          "154731.843000",
          "154733.843000",
          "154736.343000",
          "154738.843000",
          "154741.843000",
          "154744.343000",
          "154746.843000",
          "154749.343000",
          "154752.343000",
          "154754.843000",
          "154757.343000",
          "154759.843000",
          "154802.343000",
          "154804.843000",
          "154807.843000",
          "154810.343000",
          "154812.843000",
          "154815.343000",
          "154818.343000",
          "154820.843000",
          "154823.343000",
          "154825.843000",
          "154828.343000",
          "154831.343000",
          "154833.843000",
          "154836.343000",
          "154838.843000",
          "154841.343000",
          "154843.843000",
          "154846.843000",
          "154849.343000",
          "154851.843000",
          "154854.343000",
          "154857.343000",
          "154859.843000",
          "154902.343000",
          "154904.843000",
          "154907.343000",
          "154909.843000",
          "154912.843000",
          "154915.343000",
          "154917.843000",
          "154920.343000",
          "154923.343000",
          "154925.843000",
          "154928.343000",
          "154930.843000",
          "154933.343000",
          "154936.343000",
          "154938.843000",
          "154941.343000",
          "154943.843000",
          "154946.343000",
          "154948.843000",
          "154951.843000",
          "154954.343000",
          "154956.843000",
          "154959.343000",
          "155002.343000",
          "155004.843000",
          "155007.343000",
          "155009.843000",
          "155012.343000",
          "155015.343000",
          "155017.843000",
          "155020.343000",
          "155022.843000",
          "155025.343000",
          "155027.843000",
          "155030.843000",
          "155033.343000",
          "155035.843000",
          "155038.343000",
          "155040.843000",
          "155043.843000",
          "155046.343000",
          "155048.843000",
          "155051.343000",
          "155054.343000",
          "155056.843000",
          "155059.343000",
          "155101.843000",
          "155104.343000",
          "155107.343000",
          "155109.843000",
          "155112.343000",
          "155114.843000",
          "155117.343000",
          "155119.843000",
          "155122.843000",
          "155125.343000",
          "155127.843000",
          "155130.343000",
          "155133.343000",
          "155135.843000",
          "155138.343000",
          "155140.843000",
          "155143.343000",
          "155145.843000",
          "155148.843000",
          "155151.343000",
          "155153.843000",
          "155156.343000",
          "155158.843000",
          "155201.843000",
          "155204.343000",
          "155206.843000",
          "155209.343000",
          "155211.843000",
          "155214.843000",
          "155217.343000",
          "155219.843000",
          "155222.343000",
          "155225.343000",
          "155227.843000",
          "155230.343000",
          "155232.843000",
          "155235.343000",
          "155237.843000",
          "155240.843000",
          "155243.343000",
          "155245.843000",
          "155248.343000",
          "155250.843000",
          "155253.843000",
          "155256.343000",
          "155258.859000",
          "155301.343000",
          "155304.343000",
          "155306.843000",
          "155309.343000",
          "155311.843000",
          "155314.343000",
          "155316.843000",
          "155319.843000",
          "155322.343000",
          "155324.843000",
          "155327.343000",
          "155330.343000",
          "155332.843000",
          "155335.343000",
          "155337.843000",
          "155340.343000",
          "155342.843000",
          "155345.843000",
          "155348.343000",
          "155350.843000",
          "155358.218000"
        ],
        "InstanceCreationTime": [
          "154730.859000",
          "154730.859000",
          "154731.843000",
          "154733.843000",
          "154736.343000",
          "154738.843000",
          "154741.843000",
          "154744.343000",
          "154746.843000",
          "154749.343000",
          "154752.343000",
          "154754.843000",
          "154757.343000",
          "154759.843000",
          "154802.343000",
          "154804.843000",
          "154807.843000",
          "154810.343000",
          "154812.843000",
          "154815.343000",
          "154818.343000",
          "154820.843000",
          "154823.343000",
          "154825.843000",
          "154828.343000",
          "154831.343000",
          "154833.843000",
          "154836.343000",
          "154838.843000",
          "154841.343000",
          "154843.843000",
          "154846.843000",
          "154849.343000",
          "154851.843000",
          "154854.343000",
          "154857.343000",
          "154859.843000",
          "154902.343000",
          "154904.843000",
          "154907.343000",
          "154909.843000",
          "154912.843000",
          "154915.343000",
          "154917.843000",
          "154920.343000",
          "154923.343000",
          "154925.843000",
          "154928.343000",
          "154930.843000",
          "154933.343000",
          "154936.343000",
          "154938.843000",
          "154941.343000",
          "154943.843000",
          "154946.343000",
          "154948.843000",
          "154951.843000",
          "154954.343000",
          "154956.843000",
          "154959.343000",
          "155002.343000",
          "155004.843000",
          "155007.343000",
          "155009.843000",
          "155012.343000",
          "155015.343000",
          "155017.843000",
          "155020.343000",
          "155022.843000",
          "155025.343000",
          "155027.843000",
          "155030.843000",
          "155033.343000",
          "155035.843000",
          "155038.343000",
          "155040.843000",
          "155043.843000",
          "155046.343000",
          "155048.843000",
          "155051.343000",
          "155054.343000",
          "155056.843000",
          "155059.343000",
          "155101.843000",
          "155104.343000",
          "155107.343000",
          "155109.843000",
          "155112.343000",
          "155114.843000",
          "155117.343000",
          "155119.843000",
          "155122.843000",
          "155125.343000",
          "155127.843000",
          "155130.343000",
          "155133.343000",
          "155135.843000",
          "155138.343000",
          "155140.843000",
          "155143.343000",
          "155145.843000",
          "155148.843000",
          "155151.343000",
          "155153.843000",
          "155156.343000",
          "155158.843000",
          "155201.843000",
          "155204.343000",
          "155206.843000",
          "155209.343000",
          "155211.843000",
          "155214.843000",
          "155217.343000",
          "155219.843000",
          "155222.343000",
          "155225.343000",
          "155227.843000",
          "155230.343000",
          "155232.843000",
          "155235.343000",
          "155237.843000",
          "155240.843000",
          "155243.343000",
          "155245.843000",
          "155248.343000",
          "155250.843000",
          "155253.843000",
          "155256.343000",
          "155258.859000",
          "155301.343000",
          "155304.343000",
          "155306.843000",
          "155309.343000",
          "155311.843000",
          "155314.343000",
          "155316.843000",
          "155319.843000",
          "155322.343000",
          "155324.843000",
          "155327.343000",
          "155330.343000",
          "155332.843000",
          "155335.343000",
          "155337.843000",
          "155340.343000",
          "155342.843000",
          "155345.843000",
          "155348.343000",
          "155350.843000",
          "155358.218000"
        ],
        "InstanceNumber": [
          1,
          2,
          3,
          4,
          5,
          6,
          7,
          8,
          9,
          10,
          11,
          12,
          13,
          14,
          15,
          16,
          17,
          18,
          19,
          20,
          21,
          22,
          23,
          24,
          25,
          26,
          27,
          28,
          29,
          30,
          31,
          32,
          33,
          34,
          35,
          36,
          37,
          38,
          39,
          40,
          41,
          42,
          43,
          44,
          45,
          46,
          47,
          48,
          49,
          50,
          51,
          52,
          53,
          54,
          55,
          56,
          57,
          58,
          59,
          60,
          61,
          62,
          63,
          64,
          65,
          66,
          67,
          68,
          69,
          70,
          71,
          72,
          73,
          74,
          75,
          76,
          77,
          78,
          79,
          80,
          81,
          82,
          83,
          84,
          85,
          86,
          87,
          88,
          89,
          90,
          91,
          92,
          93,
          94,
          95,
          96,
          97,
          98,
          99,
          100,
          101,
          102,
          103,
          104,
          105,
          106,
          107,
          108,
          109,
          110,
          111,
          112,
          113,
          114,
          115,
          116,
          117,
          118,
          119,
          120,
          121,
          122,
          123,
          124,
          125,
          126,
          127,
          128,
          129,
          130,
          131,
          132,
          133,
          134,
          135,
          136,
          137,
          138,
          139,
          140,
          141,
          142,
          143,
          144,
          145,
          146,
          147,
          148,
          149,
          150
        ],
        "WindowCenter": [
          864.0,
          863.0,
          862.0,
          861.0,
          862.0,
          862.0,
          861.0,
          861.0,
          861.0,
          861.0,
          861.0,
          861.0,
          862.0,
          862.0,
          862.0,
          864.0,
          863.0,
          862.0,
          861.0,
          860.0,
          861.0,
          861.0,
          861.0,
          860.0,
          859.0,
          860.0,
          861.0,
          861.0,
          861.0,
          862.0,
          862.0,
          862.0,
          862.0,
          862.0,
          864.0,
          863.0,
          862.0,
          862.0,
          861.0,
          861.0,
          861.0,
          862.0,
          862.0,
          862.0,
          861.0,
          861.0,
          861.0,
          861.0,
          863.0,
          864.0,
          862.0,
          862.0,
          862.0,
          862.0,
          862.0,
          862.0,
          862.0,
          862.0,
          863.0,
          862.0,
          862.0,
          863.0,
          861.0,
          861.0,
          862.0,
          862.0,
          862.0,
          861.0,
          860.0,
          861.0,
          861.0,
          861.0,
          861.0,
          862.0,
          862.0,
          861.0,
          861.0,
          861.0,
          862.0,
          861.0,
          860.0,
          860.0,
          861.0,
          862.0,
          862.0,
          862.0,
          862.0,
          862.0,
          861.0,
          862.0,
          863.0,
          863.0,
          862.0,
          861.0,
          860.0,
          862.0,
          863.0,
          862.0,
          861.0,
          860.0,
          860.0,
          862.0,
          863.0,
          862.0,
          863.0,
          863.0,
          861.0,
          860.0,
          860.0,
          860.0,
          860.0,
          860.0,
          860.0,
          861.0,
          863.0,
          862.0,
          861.0,
          861.0,
          862.0,
          861.0,
          861.0,
          862.0,
          863.0,
          863.0,
          861.0,
          861.0,
          862.0,
          862.0,
          861.0,
          862.0,
          862.0,
          862.0,
          860.0,
          860.0,
          861.0,
          861.0,
          860.0,
          861.0,
          864.0,
          862.0,
          862.0,
          862.0,
          863.0,
          863.0,
          861.0,
          860.0,
          860.0,
          861.0,
          860.0,
          860.0
        ],
        "WindowWidth": [
          1985.0,
          1983.0,
          1979.0,
          1974.0,
          1976.0,
          1975.0,
          1973.0,
          1974.0,
          1973.0,
          1973.0,
          1975.0,
          1976.0,
          1978.0,
          1977.0,
          1979.0,
          1983.0,
          1982.0,
          1975.0,
          1972.0,
          1971.0,
          1975.0,
          1974.0,
          1975.0,
          1971.0,
          1968.0,
          1972.0,
          1974.0,
          1973.0,
          1975.0,
          1976.0,
          1976.0,
          1978.0,
          1976.0,
          1977.0,
          1983.0,
          1980.0,
          1975.0,
          1975.0,
          1974.0,
          1973.0,
          1974.0,
          1977.0,
          1978.0,
          1975.0,
          1975.0,
          1973.0,
          1971.0,
          1974.0,
          1981.0,
          1982.0,
          1976.0,
          1977.0,
          1976.0,
          1975.0,
          1977.0,
          1977.0,
          1975.0,
          1976.0,
          1981.0,
          1977.0,
          1978.0,
          1980.0,
          1975.0,
          1974.0,
          1976.0,
          1978.0,
          1977.0,
          1973.0,
          1970.0,
          1972.0,
          1975.0,
          1974.0,
          1975.0,
          1978.0,
          1978.0,
          1974.0,
          1972.0,
          1973.0,
          1976.0,
          1975.0,
          1971.0,
          1971.0,
          1975.0,
          1976.0,
          1978.0,
          1977.0,
          1976.0,
          1976.0,
          1974.0,
          1975.0,
          1979.0,
          1981.0,
          1978.0,
          1971.0,
          1970.0,
          1977.0,
          1980.0,
          1977.0,
          1974.0,
          1971.0,
          1972.0,
          1979.0,
          1981.0,
          1979.0,
          1980.0,
          1981.0,
          1975.0,
          1968.0,
          1970.0,
          1969.0,
          1970.0,
          1970.0,
          1971.0,
          1975.0,
          1980.0,
          1978.0,
          1974.0,
          1974.0,
          1979.0,
          1975.0,
          1974.0,
          1976.0,
          1981.0,
          1980.0,
          1973.0,
          1973.0,
          1976.0,
          1977.0,
          1976.0,
          1978.0,
          1980.0,
          1978.0,
          1971.0,
          1969.0,
          1974.0,
          1974.0,
          1970.0,
          1975.0,
          1983.0,
          1978.0,
          1977.0,
          1978.0,
          1982.0,
          1980.0,
          1973.0,
          1970.0,
          1969.0,
          1973.0,
          1972.0,
          1971.0
        ]
      },
      "slices": {}
    }
  },
  "dummy_trs": 0,
  "dvars_nstd": 71.06823438583895,
  "dvars_std": 1.0441732118120801,
  "dvars_vstd": 1.016724255503356,
  "efc": 0.5539853952614365,
  "fber": 382.75994873046875,
  "fd_mean": 0.047831683167082556,
  "fd_num": 1,
  "fd_perc": 0.6666666666666666,
  "fwhm_avg": 2.8120813524776866,
  "fwhm_x": 2.7175946377613984,
  "fwhm_y": 2.654222213364059,
  "fwhm_z": 3.064427206307602,
  "gcor": 0.00187409,
  "gsr_x": -0.013509809970855713,
  "gsr_y": 0.06307151913642883,
  "provenance": {
    "md5sum": "7cc4583a9581e141c9306f6bcc7e6fba",
    "settings": {
      "fd_thres": 0.2,
      "testing": false
    },
    "software": "mriqc",
    "version": "23.0.1",
    "webapi_port": null,
    "webapi_url": "https://mriqc.nimh.nih.gov/api/v1"
  },
  "size_t": 150,
  "size_x": 188,
  "size_y": 188,
  "size_z": 46,
  "snr": 2.0892092837448075,
  "spacing_tr": 2.5999999046325684,
  "spacing_x": 1.0957447290420532,
  "spacing_y": 1.0957447290420532,
  "spacing_z": 1.100000023841858,
  "summary_bg_k": 49.73894685995078,
  "summary_bg_mad": 22.703582236647453,
  "summary_bg_mean": 81.76189422607422,
  "summary_bg_median": 46.7400016784668,
  "summary_bg_n": 1065475.0,
  "summary_bg_p05": 29.913333892822266,
  "summary_bg_p95": 241.3466796875,
