{
  "aor": 0.0010082666666666666,
  "aqi": 0.01694689333333334,
  "bids_meta": {
    "AcquisitionMatrixPE": 188,
    "AcquisitionNumber": 1,
    "AcquisitionTime": "12:49:53.280000",
    "BandwidthPerPixelPhaseEncode": 19.46,
    "BaseResolution": 188,
    "CogAtlasID": "TODO",
    "ConversionSoftware": "dcm2niix",
    "ConversionSoftwareVersion": "v1.0.20180606 GCC4.8.5",
    "DelayTime": 1.2,
    "DerivedVendorReportedEchoSpacing": 0.000820013,
    "DeviceSerialNumber": "18930",
    "DwellTime": 1.9e-06,
    "EchoTime": 0.02,
    "EffectiveEchoSpacing": 0.000273338,
    "FlipAngle": 80,
    "ImageComments": "Unaliased_MB2_PE2",
    "ImageOrientationPatientDICOM": [
      0.999741,
      0.00599017,
      -0.0219662,
      -0.02273,
      0.206652,
      -0.978151
    ],
    "ImageType": [
      "ORIGINAL",
      "PRIMARY",
      "M",
      "MB",
      "ND",
      "MOSAIC"
    ],
    "InPlanePhaseEncodingDirectionDICOM": "COL",
    "InstitutionAddress": "Oxfordlaan_55_Maastricht_22AAA2_Limburg_NL_6229_EV",
    "InstitutionName": "Scannexus",
    "InstitutionalDepartmentName": "MRI_7T",
    "MRAcquisitionType": "2D",
    "MagneticFieldStrength": 6.98,
    "Manufacturer": "Siemens",
    "ManufacturersModelName": "Investigational_Device_7T",
    "Modality": "MR",
    "MultibandAccelerationFactor": 2,
    "ParallelReductionFactorInPlane": 3,
    "PartialFourier": 0.75,
    "PatientPosition": "HFS",
    "PercentPhaseFOV": 100,
    "PhaseEncodingDirection": "j",
    "PhaseEncodingSteps": 141,
    "PhaseResolution": 1,
    "PixelBandwidth": 1400,
    "ProcedureStepDescription": "FeDem_Faruk",
    "ProtocolName": "cmrr_mbep2d_bold_AP_run5",
    "PulseSequenceDetails": "%CustomerSeq%_cmrr_mbep2d_bold",
    "ReceiveCoilName": "32Ch_Head_7T",
    "ReconMatrixPE": 188,
    "RepetitionTime": 2.6,
    "SAR": 0.0569171,
    "ScanOptions": "PFP_FS",
    "ScanningSequence": "EP",
    "SequenceName": "epfid2d1_188",
    "SequenceVariant": "SK_SS",
    "SeriesDescription": "cmrr_mbep2d_bold_AP_run5",
    "SeriesNumber": 14,
    "ShimSetting": [
      69,
      -183,
      563,
      479,
      -100,
      -27,
      -134,
      84
    ],
    "SliceThickness": 1.1,
    "SliceTiming": [
      0,
      0.7325,
      0.06,
      0.7925,
      0.12,
      0.855,
      0.1825,
      0.915,
      0.2425,
      0.9775,
      0.305,
      1.0375,
      0.365,
      1.1,
      0.4275,
      1.16,
      0.4875,
      1.22,
      0.55,
      1.2825,
      0.61,
      1.3425,
      0.67,
      0,
      0.7325,
      0.06,
      0.7925,
      0.12,
      0.855,
      0.1825,
      0.915,
      0.2425,
      0.9775,
      0.305,
      1.0375,
      0.365,
      1.1,
      0.4275,
      1.16,
      0.4875,
      1.22,
      0.55,
      1.2825,
      0.61,
      1.3425,
      0.67
    ],
    "SoftwareVersions": "syngo_MR_B17",
    "SpacingBetweenSlices": 1.1,
    "StationName": "MRC18930",
    "TaskName": "auditory",
    "TotalReadoutTime": 0.0511141,
    "TxRefAmp": 220,
    "dataset": "ds001942",
    "dcmmeta_affine": [
      [
        -1.0954606533050537,
        -0.024906285107135773,
        0.0014519349206238985,
        102.12840270996094
      ],
      [
        -0.006563697941601276,
        0.22643741965293884,
        -1.0762360095977783,
        23.699573516845703
      ],
      [
        -0.02406933158636093,
        1.071803331375122,
        0.22740764915943146,
        -113.40309143066406
      ],
      [
        0.0,
        0.0,
        0.0,
        1.0
      ]
    ],
    "dcmmeta_reorient_transform": [
      [
        0.0,
        -1.0,
        0.0,
        187.0
      ],
      [
        1.0,
        0.0,
        0.0,
        0.0
      ],
      [
        0.0,
        0.0,
        1.0,
        0.0
      ],
      [
        0.0,
        0.0,
        0.0,
        1.0
      ]
    ],
    "dcmmeta_shape": [
      188,
      188,
      46,
      150
    ],
    "dcmmeta_slice_dim": 2,
    "dcmmeta_version": 0.6,
    "global": {
      "const": {
        "AcquisitionMatrix": [
          188,
          0,
          0,
          188
        ],
        "AngioFlag": "N",
        "BitsAllocated": 16,
        "BitsStored": 12,
        "Columns": 1316,
        "EchoNumbers": 1,
        "EchoTime": 20.0,
        "EchoTrainLength": 1,
        "FlipAngle": 80.0,
        "HighBit": 11,
        "ImageOrientationPatient": [
          0.99974076866955,
          0.00599017065832,
          -0.0219661857296,
          -0.0227300069613,
          0.20665161924358,
          -0.9781505278062
        ],
        "ImagePositionPatient": [
          -701.26360586144,
          -197.45600313121,
          705.09628048503
        ],
        "ImageType": [
          "ORIGINAL",
          "PRIMARY",
          "M",
          "MB",
          "ND",
          "MOSAIC"
        ],
        "ImagedNucleus": "1H",
        "ImagingFrequency": 297.205565,
        "InPlanePhaseEncodingDirection": "COL",
        "LargestImagePixelValue": 4095,
        "MRAcquisitionType": "2D",
        "MagneticFieldStrength": 6.98,
        "Manufacturer": "SIEMENS",
        "ManufacturerModelName": "Investigational_Device_7T",
        "Modality": "MR",
        "NumberOfAverages": 1.0,
        "NumberOfPhaseEncodingSteps": 141,
        "PercentPhaseFieldOfView": 100.0,
        "PercentSampling": 100.0,
        "PerformedProcedureStepStartTime": "115234.593000",
        "PhotometricInterpretation": "MONOCHROME2",
        "PixelBandwidth": 1400.0,
        "PixelRepresentation": 0,
        "PixelSpacing": [
          1.0957447290421,
          1.0957447290421
        ],
        "ProtocolName": "cmrr_mbep2d_bold_AP_run5",
        "RepetitionTime": 2600.0,
        "Rows": 1316,
        "SAR": 0.05691709935992,
        "SamplesPerPixel": 1,
        "ScanOptions": [
          "PFP",
          "FS"
        ],
        "ScanningSequence": "EP",
        "SequenceName": "epfid2d1_188",
        "SequenceVariant": [
          "SK",
          "SS"
        ],
        "SeriesDescription": "cmrr_mbep2d_bold_AP_run5",
        "SeriesNumber": 14,
        "SeriesTime": "125003.406000",
        "SliceLocation": -46.497067814841,
        "SliceThickness": 1.1000000238419,
        "SmallestImagePixelValue": 0,
        "SoftwareVersions": "syngo MR B17",
        "SpacingBetweenSlices": 1.1000001137539,
        "SpecificCharacterSet": "ISO_IR 100",
        "StudyID": "1",
        "StudyTime": "115234.359000",
        "TransmitCoilName": "32Ch_Head_7T",
        "VariableFlipAngleFlag": "N",
        "WindowCenterWidthExplanation": "Algo1",
        "dBdt": 0.0
      },
      "slices": {}
    },
    "modality": "bold",
    "run_id": 5,
    "session_id": "SES03",
    "subject_id": "S05",
    "task_id": "auditory",
    "time": {
      "samples": {
        "AcquisitionNumber": [
          1,
          2,
          3,
          4,
          5,
          6,
          7,
          8,
          9,
          10,
          11,
          12,
          13,
          14,
          15,
          16,
          17,
          18,
          19,
          20,
          21,
          22,
          23,
          24,
          25,
          26,
          27,
          28,
          29,
          30,
          31,
          32,
          33,
          34,
          35,
          36,
          37,
          38,
          39,
          40,
          41,
          42,
          43,
          44,
          45,
          46,
          47,
          48,
          49,
          50,
          51,
          52,
          53,
          54,
          55,
          56,
          57,
          58,
          59,
          60,
          61,
          62,
          63,
          64,
          65,
          66,
          67,
          68,
          69,
          70,
          71,
          72,
          73,
          74,
          75,
          76,
          77,
          78,
          79,
          80,
          81,
          82,
          83,
          84,
          85,
          86,
          87,
          88,
          89,
          90,
          91,
          92,
          93,
          94,
          95,
          96,
          97,
          98,
          99,
          100,
          101,
          102,
          103,
          104,
          105,
          106,
          107,
          108,
          109,
          110,
          111,
          112,
          113,
          114,
          115,
          116,
          117,
          118,
          119,
          120,
          121,
          122,
          123,
          124,
          125,
          126,
          127,
          128,
          129,
          130,
          131,
          132,
          133,
          134,
          135,
          136,
          137,
          138,
          139,
          140,
          141,
          142,
          143,
          144,
          145,
          146,
          147,
          148,
          149,
          150
        ],
        "AcquisitionTime": [
          "124953.280000",
          "124955.890000",
          "124958.500000",
          "125001.110000",
          "125003.720000",
          "125006.330000",
          "125008.942500",
          "125011.552500",
          "125014.162500",
          "125016.772500",
          "125019.382500",
          "125021.995000",
          "125024.605000",
          "125027.215000",
          "125029.825000",
          "125032.435000",
          "125035.045000",
          "125037.657500",
          "125040.267500",
          "125042.877500",
          "125045.487500",
          "125048.097500",
          "125050.707500",
          "125053.320000",
          "125055.930000",
          "125058.540000",
          "125101.150000",
          "125103.760000",
          "125106.372500",
          "125108.982500",
          "125111.592500",
          "125114.202500",
          "125116.812500",
          "125119.422500",
          "125122.035000",
          "125124.645000",
          "125127.255000",
          "125129.865000",
          "125132.475000",
          "125135.085000",
          "125137.697500",
          "125140.307500",
          "125142.917500",
          "125145.527500",
          "125148.137500",
          "125150.750000",
          "125153.360000",
          "125155.970000",
          "125158.580000",
          "125201.190000",
          "125203.800000",
          "125206.412500",
          "125209.022500",
          "125211.632500",
          "125214.242500",
          "125216.852500",
          "125219.462500",
          "125222.075000",
          "125224.685000",
          "125227.295000",
          "125229.905000",
          "125232.515000",
          "125235.127500",
          "125237.737500",
          "125240.347500",
          "125242.957500",
          "125245.567500",
          "125248.177500",
          "125250.790000",
          "125253.400000",
          "125256.010000",
          "125258.620000",
          "125301.230000",
          "125303.840000",
          "125306.452500",
          "125309.062500",
          "125311.672500",
          "125314.282500",
          "125316.892500",
          "125319.505000",
          "125322.115000",
          "125324.725000",
          "125327.335000",
          "125329.945000",
          "125332.555000",
          "125335.167500",
          "125337.777500",
          "125340.387500",
          "125342.997500",
          "125345.607500",
          "125348.217500",
          "125350.830000",
          "125353.440000",
          "125356.050000",
          "125358.660000",
          "125401.270000",
          "125403.882500",
          "125406.492500",
          "125409.102500",
          "125411.712500",
          "125414.322500",
          "125416.932500",
          "125419.545000",
          "125422.155000",
          "125424.765000",
          "125427.375000",
          "125429.985000",
          "125432.595000",
          "125435.207500",
          "125437.817500",
          "125440.427500",
          "125443.037500",
          "125445.647500",
          "125448.260000",
          "125450.870000",
          "125453.480000",
          "125456.090000",
          "125458.700000",
          "125501.310000",
          "125503.922500",
          "125506.532500",
          "125509.142500",
          "125511.752500",
          "125514.362500",
          "125516.972500",
          "125519.585000",
          "125522.195000",
          "125524.805000",
          "125527.415000",
          "125530.025000",
          "125532.637500",
          "125535.247500",
          "125537.857500",
          "125540.467500",
          "125543.077500",
          "125545.687500",
          "125548.300000",
          "125550.910000",
          "125553.520000",
          "125556.130000",
          "125558.740000",
          "125601.350000",
          "125603.962500",
          "125606.572500",
          "125609.182500",
          "125611.792500",
          "125614.402500",
          "125617.015000",
          "125619.625000",
          "125622.235000"
        ],
        "ContentTime": [
          "125003.406000",
          "125003.406000",
          "125004.390000",
          "125006.390000",
          "125008.890000",
          "125011.390000",
          "125014.390000",
          "125016.890000",
          "125019.390000",
          "125021.890000",
          "125024.890000",
          "125027.390000",
          "125029.890000",
          "125032.390000",
          "125034.890000",
          "125037.390000",
          "125040.390000",
          "125042.890000",
          "125045.390000",
          "125047.890000",
          "125050.890000",
          "125053.390000",
          "125055.890000",
          "125058.390000",
          "125100.890000",
          "125103.890000",
          "125106.390000",
          "125108.890000",
          "125111.390000",
          "125113.890000",
          "125116.890000",
          "125119.390000",
          "125121.890000",
          "125124.390000",
          "125126.890000",
          "125129.890000",
          "125132.390000",
          "125134.890000",
          "125137.390000",
          "125139.890000",
          "125142.890000",
          "125145.390000",
          "125147.890000",
          "125150.390000",
          "125152.890000",
          "125155.390000",
          "125158.390000",
          "125200.890000",
          "125203.390000",
          "125205.890000",
          "125208.890000",
          "125211.390000",
          "125213.890000",
          "125216.390000",
          "125218.890000",
          "125221.390000",
          "125224.390000",
          "125226.890000",
          "125229.390000",
          "125231.890000",
          "125234.890000",
          "125237.390000",
          "125239.890000",
          "125242.390000",
          "125244.890000",
          "125247.890000",
          "125250.390000",
          "125252.890000",
          "125255.390000",
          "125257.890000",
          "125300.890000",
          "125303.390000",
          "125305.890000",
          "125308.390000",
          "125310.890000",
          "125313.890000",
          "125316.390000",
          "125318.890000",
          "125321.390000",
          "125323.890000",
          "125326.890000",
          "125329.390000",
          "125331.890000",
          "125334.390000",
          "125336.890000",
          "125339.390000",
          "125342.390000",
          "125344.890000",
          "125347.390000",
          "125349.890000",
          "125352.390000",
          "125355.390000",
          "125357.890000",
          "125400.390000",
          "125402.890000",
          "125405.390000",
          "125408.390000",
          "125410.890000",
          "125413.390000",
          "125415.890000",
          "125418.890000",
          "125421.390000",
          "125423.890000",
          "125426.390000",
          "125428.890000",
          "125431.390000",
          "125434.390000",
          "125436.890000",
          "125439.390000",
          "125441.890000",
          "125444.390000",
          "125447.390000",
          "125449.890000",
          "125452.390000",
          "125454.890000",
          "125457.890000",
          "125500.390000",
          "125502.890000",
          "125505.390000",
          "125507.890000",
          "125510.390000",
          "125513.390000",
          "125515.890000",
          "125518.390000",
          "125520.890000",
          "125523.390000",
          "125526.390000",
          "125528.890000",
          "125531.390000",
          "125533.890000",
          "125536.890000",
          "125539.390000",
          "125541.890000",
          "125544.390000",
          "125546.890000",
          "125549.890000",
          "125552.390000",
          "125554.890000",
          "125557.390000",
          "125559.890000",
          "125602.890000",
          "125605.390000",
          "125607.890000",
          "125610.390000",
          "125612.890000",
          "125615.890000",
          "125618.390000",
          "125620.890000",
          "125623.390000",
          "125630.781000"
        ],
        "InstanceCreationTime": [
          "125003.406000",
          "125003.406000",
          "125004.390000",
          "125006.390000",
          "125008.890000",
          "125011.390000",
          "125014.390000",
          "125016.890000",
          "125019.390000",
          "125021.890000",
          "125024.890000",
          "125027.390000",
          "125029.890000",
          "125032.390000",
          "125034.890000",
          "125037.390000",
          "125040.390000",
          "125042.890000",
          "125045.390000",
          "125047.890000",
          "125050.890000",
          "125053.390000",
          "125055.890000",
          "125058.390000",
          "125100.890000",
          "125103.890000",
          "125106.390000",
          "125108.890000",
          "125111.390000",
          "125113.890000",
          "125116.890000",
          "125119.390000",
          "125121.890000",
          "125124.390000",
          "125126.890000",
          "125129.890000",
          "125132.390000",
          "125134.890000",
          "125137.390000",
          "125139.890000",
          "125142.890000",
          "125145.390000",
          "125147.890000",
          "125150.390000",
          "125152.890000",
          "125155.390000",
          "125158.390000",
          "125200.890000",
          "125203.390000",
          "125205.890000",
          "125208.890000",
          "125211.390000",
          "125213.890000",
          "125216.390000",
          "125218.890000",
          "125221.390000",
          "125224.390000",
          "125226.890000",
          "125229.390000",
          "125231.890000",
          "125234.890000",
          "125237.390000",
          "125239.890000",
          "125242.390000",
          "125244.890000",
          "125247.890000",
          "125250.390000",
          "125252.890000",
          "125255.390000",
          "125257.890000",
          "125300.890000",
          "125303.390000",
          "125305.890000",
          "125308.390000",
          "125310.890000",
          "125313.890000",
          "125316.390000",
          "125318.890000",
          "125321.390000",
          "125323.890000",
          "125326.890000",
          "125329.390000",
          "125331.890000",
          "125334.390000",
          "125336.890000",
          "125339.390000",
          "125342.390000",
          "125344.890000",
          "125347.390000",
          "125349.890000",
          "125352.390000",
          "125355.390000",
          "125357.890000",
          "125400.390000",
          "125402.890000",
          "125405.390000",
          "125408.390000",
          "125410.890000",
          "125413.390000",
          "125415.890000",
          "125418.890000",
          "125421.390000",
          "125423.890000",
          "125426.390000",
          "125428.890000",
          "125431.390000",
          "125434.390000",
          "125436.890000",
          "125439.390000",
          "125441.890000",
          "125444.390000",
          "125447.390000",
          "125449.890000",
          "125452.390000",
          "125454.890000",
          "125457.890000",
          "125500.390000",
          "125502.890000",
          "125505.390000",
          "125507.890000",
          "125510.390000",
          "125513.390000",
          "125515.890000",
          "125518.390000",
          "125520.890000",
          "125523.390000",
          "125526.390000",
          "125528.890000",
          "125531.390000",
          "125533.890000",
          "125536.890000",
          "125539.390000",
          "125541.890000",
          "125544.390000",
          "125546.890000",
          "125549.890000",
          "125552.390000",
          "125554.890000",
          "125557.390000",
          "125559.890000",
          "125602.890000",
          "125605.390000",
          "125607.890000",
          "125610.390000",
          "125612.890000",
          "125615.890000",
          "125618.390000",
          "125620.890000",
          "125623.390000",
          "125630.781000"
        ],
        "InstanceNumber": [
          1,
          2,
          3,
          4,
          5,
          6,
          7,
          8,
          9,
          10,
          11,
          12,
          13,
          14,
          15,
          16,
          17,
          18,
          19,
          20,
          21,
          22,
          23,
          24,
          25,
          26,
          27,
          28,
          29,
          30,
          31,
          32,
          33,
          34,
          35,
          36,
          37,
          38,
          39,
          40,
          41,
          42,
          43,
          44,
          45,
          46,
          47,
          48,
          49,
          50,
          51,
          52,
          53,
          54,
          55,
          56,
          57,
          58,
          59,
          60,
          61,
          62,
          63,
          64,
          65,
          66,
          67,
          68,
          69,
          70,
          71,
          72,
          73,
          74,
          75,
          76,
          77,
          78,
          79,
          80,
          81,
          82,
          83,
          84,
          85,
          86,
          87,
          88,
          89,
          90,
          91,
          92,
          93,
          94,
          95,
          96,
          97,
          98,
          99,
          100,
          101,
          102,
          103,
          104,
          105,
          106,
          107,
          108,
          109,
          110,
          111,
          112,
          113,
          114,
          115,
          116,
          117,
          118,
          119,
          120,
          121,
          122,
          123,
          124,
          125,
          126,
          127,
          128,
          129,
          130,
          131,
          132,
          133,
          134,
          135,
          136,
          137,
          138,
          139,
          140,
          141,
          142,
          143,
          144,
          145,
          146,
          147,
          148,
          149,
          150
        ],
        "WindowCenter": [
          965.0,
          962.0,
          960.0,
          960.0,
          962.0,
          963.0,
          961.0,
          958.0,
          956.0,
          959.0,
          961.0,
          961.0,
          961.0,
          961.0,
          962.0,
          961.0,
          963.0,
          962.0,
          963.0,
          963.0,
          963.0,
          962.0,
          961.0,
          958.0,
          956.0,
          957.0,
          959.0,
          962.0,
          960.0,
          961.0,
          961.0,
          960.0,
          960.0,
          960.0,
          960.0,
          960.0,
          960.0,
          962.0,
          963.0,
          961.0,
          960.0,
          963.0,
          960.0,
          959.0,
          960.0,
          959.0,
          957.0,
          957.0,
          959.0,
          959.0,
          958.0,
          958.0,
          958.0,
          958.0,
          960.0,
          962.0,
          959.0,
          960.0,
          961.0,
          962.0,
          961.0,
          959.0,
          960.0,
          963.0,
          961.0,
          960.0,
          961.0,
          963.0,
          959.0,
          960.0,
          959.0,
          955.0,
          956.0,
          959.0,
          960.0,
          960.0,
          961.0,
          963.0,
          961.0,
          961.0,
          963.0,
          960.0,
          959.0,
          959.0,
          960.0,
          962.0,
          964.0,
          959.0,
          960.0,
          963.0,
          959.0,
          958.0,
          959.0,
          957.0,
          957.0,
          957.0,
          958.0,
          957.0,
          958.0,
          960.0,
          960.0,
          960.0,
          960.0,
          961.0,
          962.0,
          961.0,
          960.0,
          958.0,
          958.0,
          960.0,
          959.0,
          958.0,
          958.0,
          957.0,
          956.0,
          957.0,
          960.0,
          958.0,
          959.0,
          959.0,
          958.0,
          957.0,
          957.0,
          959.0,
          958.0,
          959.0,
          959.0,
          956.0,
          956.0,
          959.0,
          959.0,
          957.0,
          956.0,
          957.0,
          958.0,
          955.0,
          956.0,
          956.0,
          956.0,
          958.0,
          958.0,
          956.0,
          954.0,
          954.0,
          957.0,
          957.0,
          957.0,
          956.0,
          957.0,
          958.0
        ],
        "WindowWidth": [
          2224.0,
          2217.0,
          2212.0,
          2213.0,
          2219.0,
          2222.0,
          2213.0,
          2205.0,
          2201.0,
          2211.0,
          2217.0,
          2217.0,
          2215.0,
          2218.0,
          2220.0,
          2217.0,
          2222.0,
          2218.0,
          2221.0,
          2222.0,
          2221.0,
          2219.0,
          2216.0,
          2205.0,
          2201.0,
          2206.0,
          2210.0,
          2217.0,
          2214.0,
          2215.0,
          2215.0,
          2212.0,
          2214.0,
          2214.0,
          2213.0,
          2214.0,
          2215.0,
          2220.0,
          2220.0,
          2215.0,
          2214.0,
          2221.0,
          2213.0,
          2211.0,
          2213.0,
          2211.0,
          2204.0,
          2205.0,
          2212.0,
          2210.0,
          2208.0,
          2208.0,
          2208.0,
          2208.0,
          2215.0,
          2220.0,
          2208.0,
          2215.0,
          2217.0,
          2220.0,
          2217.0,
          2210.0,
          2215.0,
          2224.0,
          2216.0,
          2212.0,
          2218.0,
          2223.0,
          2212.0,
          2215.0,
          2210.0,
          2200.0,
          2202.0,
          2213.0,
          2214.0,
          2212.0,
          2217.0,
          2222.0,
          2215.0,
          2216.0,
          2223.0,
          2212.0,
          2211.0,
          2212.0,
          2214.0,
          2223.0,
          2226.0,
          2209.0,
          2215.0,
          2225.0,
          2211.0,
          2209.0,
          2211.0,
          2206.0,
          2205.0,
          2207.0,
          2207.0,
          2206.0,
          2210.0,
          2217.0,
          2215.0,
          2215.0,
          2214.0,
          2220.0,
          2220.0,
          2220.0,
          2215.0,
          2211.0,
          2211.0,
          2215.0,
          2211.0,
          2210.0,
          2211.0,
          2206.0,
          2205.0,
          2208.0,
          2217.0,
          2211.0,
          2213.0,
          2212.0,
          2209.0,
          2206.0,
          2207.0,
          2214.0,
          2211.0,
          2214.0,
          2213.0,
          2202.0,
          2204.0,
          2214.0,
          2212.0,
          2207.0,
          2205.0,
          2208.0,
          2209.0,
          2200.0,
          2205.0,
          2205.0,
          2205.0,
          2211.0,
          2211.0,
          2202.0,
          2198.0,
          2198.0,
          2207.0,
          2208.0,
          2209.0,
          2205.0,
          2208.0,
          2211.0
        ]
      },
      "slices": {}
    }
  },
  "dummy_trs": 0,
  "dvars_nstd": 81.73594757744966,
  "dvars_std": 1.0857868804026845,
  "dvars_vstd": 1.019839765906041,
  "efc": 0.5829123915231331,
  "fber": 221.633056640625,
  "fd_mean": 0.11534841567487406,
  "fd_num": 14,
  "fd_perc": 9.333333333333334,
  "fwhm_avg": 3.1345383345660434,
  "fwhm_x": 3.065376370038729,
  "fwhm_y": 2.931184531280309,
  "fwhm_z": 3.407054102379092,
  "gcor": 0.00463784,
  "gsr_x": 0.026540102437138557,
  "gsr_y": 0.044276583939790726,
  "provenance": {
    "md5sum": "efa351acf52572e0466d2d60aab2599b",
    "settings": {
      "fd_thres": 0.2,
      "testing": false
    },
    "software": "mriqc",
    "version": "22.0.6",
    "webapi_port": null,
    "webapi_url": "https://mriqc.nimh.nih.gov/api/v1"
  },
  "size_t": 150,
  "size_x": 188,
  "size_y": 188,
  "size_z": 46,
  "snr": 1.8958028812815395,
  "spacing_tr": 2.5999999046325684,
  "spacing_x": 1.0957447290420532,
  "spacing_y": 1.0957447290420532,
  "spacing_z": 1.1000001430511475,
  "summary_bg_k": 45.82850381933909,
  "summary_bg_mad": 42.69893710614698,
  "summary_bg_mean": 120.24652099609375,
  "summary_bg_median": 67.70000457763672,
  "summary_bg_n": 1017569.0,
  "summary_bg_p05": 32.90666580200195,
