{
  "aor": 0.0011762666666666668,
  "aqi": 0.015072019333333332,
  "bids_meta": {
    "AcquisitionMatrixPE": 188,
    "AcquisitionNumber": 1,
    "AcquisitionTime": "12:57:48.647500",
    "BandwidthPerPixelPhaseEncode": 19.46,
    "BaseResolution": 188,
    "CogAtlasID": "TODO",
    "ConversionSoftware": "dcm2niix",
    "ConversionSoftwareVersion": "v1.0.20180606 GCC4.8.5",
    "DelayTime": 1.2,
    "DerivedVendorReportedEchoSpacing": 0.000820013,
    "DeviceSerialNumber": "18930",
    "DwellTime": 1.9e-06,
    "EchoTime": 0.02,
    "EffectiveEchoSpacing": 0.000273338,
    "FlipAngle": 80,
    "ImageComments": "Unaliased_MB2_PE2",
    "ImageOrientationPatientDICOM": [
      0.999741,
      0.00599017,
      -0.0219662,
      -0.02273,
      0.206652,
      -0.978151
    ],
    "ImageType": [
      "ORIGINAL",
      "PRIMARY",
      "M",
      "MB",
      "ND",
      "MOSAIC"
    ],
    "InPlanePhaseEncodingDirectionDICOM": "COL",
    "InstitutionAddress": "Oxfordlaan_55_Maastricht_22AAA2_Limburg_NL_6229_EV",
    "InstitutionName": "Scannexus",
    "InstitutionalDepartmentName": "MRI_7T",
    "MRAcquisitionType": "2D",
    "MagneticFieldStrength": 6.98,
    "Manufacturer": "Siemens",
    "ManufacturersModelName": "Investigational_Device_7T",
    "Modality": "MR",
    "MultibandAccelerationFactor": 2,
    "ParallelReductionFactorInPlane": 3,
    "PartialFourier": 0.75,
    "PatientPosition": "HFS",
    "PercentPhaseFOV": 100,
    "PhaseEncodingDirection": "j",
    "PhaseEncodingSteps": 141,
    "PhaseResolution": 1,
    "PixelBandwidth": 1400,
    "ProcedureStepDescription": "FeDem_Faruk",
    "ProtocolName": "cmrr_mbep2d_bold_AP_run6",
    "PulseSequenceDetails": "%CustomerSeq%_cmrr_mbep2d_bold",
    "ReceiveCoilName": "32Ch_Head_7T",
    "ReconMatrixPE": 188,
    "RepetitionTime": 2.6,
    "SAR": 0.0568888,
    "ScanOptions": "PFP_FS",
    "ScanningSequence": "EP",
    "SequenceName": "epfid2d1_188",
    "SequenceVariant": "SK_SS",
    "SeriesDescription": "cmrr_mbep2d_bold_AP_run6",
    "SeriesNumber": 15,
    "ShimSetting": [
      69,
      -183,
      563,
      479,
      -100,
      -27,
      -134,
      84
    ],
    "SliceThickness": 1.1,
    "SliceTiming": [
      0,
      0.735,
      0.0625,
      0.795,
      0.1225,
      0.855,
      0.185,
      0.9175,
      0.245,
      0.9775,
      0.305,
      1.04,
      0.3675,
      1.1,
      0.4275,
      1.1625,
      0.49,
      1.2225,
      0.55,
      1.285,
      0.6125,
      1.345,
      0.6725,
      0,
      0.735,
      0.0625,
      0.795,
      0.1225,
      0.855,
      0.185,
      0.9175,
      0.245,
      0.9775,
      0.305,
      1.04,
      0.3675,
      1.1,
      0.4275,
      1.1625,
      0.49,
      1.2225,
      0.55,
      1.285,
      0.6125,
      1.345,
      0.6725
    ],
    "SoftwareVersions": "syngo_MR_B17",
    "SpacingBetweenSlices": 1.1,
    "StationName": "MRC18930",
    "TaskName": "auditory",
    "TotalReadoutTime": 0.0511141,
    "TxRefAmp": 220,
    "dataset": "ds001942",
    "dcmmeta_affine": [
      [
        -1.0954606533050537,
        -0.024906285107135773,
        0.0014519349206238985,
        102.12840270996094
      ],
      [
        -0.006563697941601276,
        0.22643741965293884,
        -1.0762360095977783,
        23.699573516845703
      ],
      [
        -0.02406933158636093,
        1.071803331375122,
        0.22740764915943146,
        -113.40309143066406
      ],
      [
        0.0,
        0.0,
        0.0,
        1.0
      ]
    ],
    "dcmmeta_reorient_transform": [
      [
        0.0,
        -1.0,
        0.0,
        187.0
      ],
      [
        1.0,
        0.0,
        0.0,
        0.0
      ],
      [
        0.0,
        0.0,
        1.0,
        0.0
      ],
      [
        0.0,
        0.0,
        0.0,
        1.0
      ]
    ],
    "dcmmeta_shape": [
      188,
      188,
      46,
      150
    ],
    "dcmmeta_slice_dim": 2,
    "dcmmeta_version": 0.6,
    "global": {
      "const": {
        "AcquisitionMatrix": [
          188,
          0,
          0,
          188
        ],
        "AngioFlag": "N",
        "BitsAllocated": 16,
        "BitsStored": 12,
        "Columns": 1316,
        "EchoNumbers": 1,
        "EchoTime": 20.0,
        "EchoTrainLength": 1,
        "FlipAngle": 80.0,
        "HighBit": 11,
        "ImageOrientationPatient": [
          0.99974076866955,
          0.00599017065832,
          -0.0219661857296,
          -0.0227300069613,
          0.20665161924358,
          -0.9781505278062
        ],
        "ImagePositionPatient": [
          -701.26360586144,
          -197.45600313121,
          705.09628048503
        ],
        "ImageType": [
          "ORIGINAL",
          "PRIMARY",
          "M",
          "MB",
          "ND",
          "MOSAIC"
        ],
        "ImagedNucleus": "1H",
        "ImagingFrequency": 297.20556,
        "InPlanePhaseEncodingDirection": "COL",
        "LargestImagePixelValue": 4095,
        "MRAcquisitionType": "2D",
        "MagneticFieldStrength": 6.98,
        "Manufacturer": "SIEMENS",
        "ManufacturerModelName": "Investigational_Device_7T",
        "Modality": "MR",
        "NumberOfAverages": 1.0,
        "NumberOfPhaseEncodingSteps": 141,
        "PercentPhaseFieldOfView": 100.0,
        "PercentSampling": 100.0,
        "PerformedProcedureStepStartTime": "115234.593000",
        "PhotometricInterpretation": "MONOCHROME2",
        "PixelBandwidth": 1400.0,
        "PixelRepresentation": 0,
        "PixelSpacing": [
          1.0957447290421,
          1.0957447290421
        ],
        "ProtocolName": "cmrr_mbep2d_bold_AP_run6",
        "RepetitionTime": 2600.0,
        "Rows": 1316,
        "SAR": 0.05688881558127,
        "SamplesPerPixel": 1,
        "ScanOptions": [
          "PFP",
          "FS"
        ],
        "ScanningSequence": "EP",
        "SequenceName": "epfid2d1_188",
        "SequenceVariant": [
          "SK",
          "SS"
        ],
        "SeriesDescription": "cmrr_mbep2d_bold_AP_run6",
        "SeriesNumber": 15,
        "SeriesTime": "125758.281000",
        "SliceLocation": -46.497067814841,
        "SliceThickness": 1.1000000238419,
        "SmallestImagePixelValue": 0,
        "SoftwareVersions": "syngo MR B17",
        "SpacingBetweenSlices": 1.1000001137539,
        "SpecificCharacterSet": "ISO_IR 100",
        "StudyID": "1",
        "StudyTime": "115234.359000",
        "TransmitCoilName": "32Ch_Head_7T",
        "VariableFlipAngleFlag": "N",
        "WindowCenterWidthExplanation": "Algo1",
        "dBdt": 0.0
      },
      "slices": {}
    },
    "modality": "bold",
    "run_id": 6,
    "session_id": "SES03",
    "subject_id": "S05",
    "task_id": "auditory",
    "time": {
      "samples": {
        "AcquisitionNumber": [
          1,
          2,
          3,
          4,
          5,
          6,
          7,
          8,
          9,
          10,
          11,
          12,
          13,
          14,
          15,
          16,
          17,
          18,
          19,
          20,
          21,
          22,
          23,
          24,
          25,
          26,
          27,
          28,
          29,
          30,
          31,
          32,
          33,
          34,
          35,
          36,
          37,
          38,
          39,
          40,
          41,
          42,
          43,
          44,
          45,
          46,
          47,
          48,
          49,
          50,
          51,
          52,
          53,
          54,
          55,
          56,
          57,
          58,
          59,
          60,
          61,
          62,
          63,
          64,
          65,
          66,
          67,
          68,
          69,
          70,
          71,
          72,
          73,
          74,
          75,
          76,
          77,
          78,
          79,
          80,
          81,
          82,
          83,
          84,
          85,
          86,
          87,
          88,
          89,
          90,
          91,
          92,
          93,
          94,
          95,
          96,
          97,
          98,
          99,
          100,
          101,
          102,
          103,
          104,
          105,
          106,
          107,
          108,
          109,
          110,
          111,
          112,
          113,
          114,
          115,
          116,
          117,
          118,
          119,
          120,
          121,
          122,
          123,
          124,
          125,
          126,
          127,
          128,
          129,
          130,
          131,
          132,
          133,
          134,
          135,
          136,
          137,
          138,
          139,
          140,
          141,
          142,
          143,
          144,
          145,
          146,
          147,
          148,
          149,
          150
        ],
        "AcquisitionTime": [
          "125748.647500",
          "125751.257500",
          "125753.870000",
          "125756.480000",
          "125759.090000",
          "125801.700000",
          "125804.310000",
          "125806.920000",
          "125809.532500",
          "125812.142500",
          "125814.752500",
          "125817.362500",
          "125819.972500",
          "125822.585000",
          "125825.195000",
          "125827.805000",
          "125830.415000",
          "125833.025000",
          "125835.635000",
          "125838.247500",
          "125840.857500",
          "125843.467500",
          "125846.077500",
          "125848.687500",
          "125851.297500",
          "125853.910000",
          "125856.520000",
          "125859.130000",
          "125901.740000",
          "125904.350000",
          "125906.962500",
          "125909.572500",
          "125912.182500",
          "125914.792500",
          "125917.402500",
          "125920.012500",
          "125922.625000",
          "125925.235000",
          "125927.845000",
          "125930.455000",
          "125933.065000",
          "125935.675000",
          "125938.287500",
          "125940.897500",
          "125943.507500",
          "125946.117500",
          "125948.727500",
          "125951.340000",
          "125953.950000",
          "125956.560000",
          "125959.170000",
          "130001.780000",
          "130004.390000",
          "130007.002500",
          "130009.612500",
          "130012.222500",
          "130014.832500",
          "130017.442500",
          "130020.055000",
          "130022.665000",
          "130025.275000",
          "130027.885000",
          "130030.495000",
          "130033.105000",
          "130035.717500",
          "130038.327500",
          "130040.937500",
          "130043.547500",
          "130046.157500",
          "130048.767500",
          "130051.380000",
          "130053.990000",
          "130056.600000",
          "130059.210000",
          "130101.820000",
          "130104.432500",
          "130107.042500",
          "130109.652500",
          "130112.262500",
          "130114.872500",
          "130117.482500",
          "130120.095000",
          "130122.705000",
          "130125.315000",
          "130127.925000",
          "130130.535000",
          "130133.145000",
          "130135.757500",
          "130138.367500",
          "130140.977500",
          "130143.587500",
          "130146.197500",
          "130148.810000",
          "130151.420000",
          "130154.030000",
          "130156.640000",
          "130159.250000",
          "130201.860000",
          "130204.472500",
          "130207.082500",
          "130209.692500",
          "130212.302500",
          "130214.912500",
          "130217.522500",
          "130220.135000",
          "130222.745000",
          "130225.355000",
          "130227.965000",
          "130230.575000",
          "130233.187500",
          "130235.797500",
          "130238.407500",
          "130241.017500",
          "130243.627500",
          "130246.237500",
          "130248.850000",
          "130251.460000",
          "130254.070000",
          "130256.680000",
          "130259.290000",
          "130301.900000",
          "130304.512500",
          "130307.122500",
          "130309.732500",
          "130312.342500",
          "130314.952500",
          "130317.565000",
          "130320.175000",
          "130322.785000",
          "130325.395000",
          "130328.005000",
          "130330.615000",
          "130333.227500",
          "130335.837500",
          "130338.447500",
          "130341.057500",
          "130343.667500",
          "130346.277500",
          "130348.890000",
          "130351.500000",
          "130354.110000",
          "130356.720000",
          "130359.330000",
          "130401.942500",
          "130404.552500",
          "130407.162500",
          "130409.772500",
          "130412.382500",
          "130414.992500",
          "130417.605000"
        ],
        "ContentTime": [
          "125758.281000",
          "125759.265000",
          "125759.265000",
          "125801.765000",
          "125804.265000",
          "125806.765000",
          "125809.265000",
          "125812.265000",
          "125814.765000",
          "125817.265000",
          "125819.765000",
          "125822.265000",
          "125825.265000",
          "125827.765000",
          "125830.265000",
          "125832.765000",
          "125835.265000",
          "125838.265000",
          "125840.765000",
          "125843.265000",
          "125845.765000",
          "125848.265000",
          "125851.265000",
          "125853.765000",
          "125856.265000",
          "125858.765000",
          "125901.265000",
          "125904.265000",
          "125906.765000",
          "125909.265000",
          "125911.765000",
          "125914.265000",
          "125917.265000",
          "125919.765000",
          "125922.281000",
          "125924.765000",
          "125927.265000",
          "125930.265000",
          "125932.765000",
          "125935.265000",
          "125937.765000",
          "125940.265000",
          "125943.265000",
          "125945.765000",
          "125948.265000",
          "125950.765000",
          "125953.265000",
          "125956.265000",
          "125958.765000",
          "130001.265000",
          "130003.765000",
          "130006.265000",
          "130009.265000",
          "130011.765000",
          "130014.265000",
          "130016.765000",
          "130019.265000",
          "130022.265000",
          "130024.765000",
          "130027.265000",
          "130029.765000",
          "130032.265000",
          "130035.265000",
          "130037.765000",
          "130040.265000",
          "130042.765000",
          "130045.265000",
          "130048.265000",
          "130050.765000",
          "130053.265000",
          "130055.765000",
          "130058.265000",
          "130101.265000",
          "130103.765000",
          "130106.265000",
          "130108.765000",
          "130111.265000",
          "130114.265000",
          "130116.765000",
          "130119.265000",
          "130121.765000",
          "130124.265000",
          "130127.265000",
          "130129.765000",
          "130132.265000",
          "130134.765000",
          "130137.265000",
          "130140.265000",
          "130142.765000",
          "130145.265000",
          "130147.765000",
          "130150.265000",
          "130153.265000",
          "130155.765000",
          "130158.265000",
          "130200.765000",
          "130203.265000",
          "130206.265000",
          "130208.765000",
          "130211.265000",
          "130213.765000",
          "130216.265000",
          "130219.265000",
          "130221.765000",
          "130224.265000",
          "130226.765000",
          "130229.265000",
          "130232.265000",
          "130234.765000",
          "130237.265000",
          "130239.765000",
          "130242.265000",
          "130245.265000",
          "130247.765000",
          "130250.265000",
          "130252.765000",
          "130255.265000",
          "130258.265000",
          "130300.765000",
          "130303.265000",
          "130305.765000",
          "130308.265000",
          "130311.265000",
          "130313.765000",
          "130316.265000",
          "130318.765000",
          "130321.265000",
          "130324.265000",
          "130326.765000",
          "130329.265000",
          "130331.765000",
          "130334.265000",
          "130337.265000",
          "130339.765000",
          "130342.265000",
          "130344.765000",
          "130347.265000",
          "130350.265000",
          "130352.765000",
          "130355.265000",
          "130357.765000",
          "130400.265000",
          "130403.265000",
          "130405.765000",
          "130408.265000",
          "130410.765000",
          "130413.265000",
          "130416.265000",
          "130418.765000",
          "130425.984000"
        ],
        "InstanceCreationTime": [
          "125758.281000",
          "125759.265000",
          "125759.265000",
          "125801.765000",
          "125804.265000",
          "125806.765000",
          "125809.265000",
          "125812.265000",
          "125814.765000",
          "125817.265000",
          "125819.765000",
          "125822.265000",
          "125825.265000",
          "125827.765000",
          "125830.265000",
          "125832.765000",
          "125835.265000",
          "125838.265000",
          "125840.765000",
          "125843.265000",
          "125845.765000",
          "125848.265000",
          "125851.265000",
          "125853.765000",
          "125856.265000",
          "125858.765000",
          "125901.265000",
          "125904.265000",
          "125906.765000",
          "125909.265000",
          "125911.765000",
          "125914.265000",
          "125917.265000",
          "125919.765000",
          "125922.281000",
          "125924.765000",
          "125927.265000",
          "125930.265000",
          "125932.765000",
          "125935.265000",
          "125937.765000",
          "125940.265000",
          "125943.265000",
          "125945.765000",
          "125948.265000",
          "125950.765000",
          "125953.265000",
          "125956.265000",
          "125958.765000",
          "130001.265000",
          "130003.765000",
          "130006.265000",
          "130009.265000",
          "130011.765000",
          "130014.265000",
          "130016.765000",
          "130019.265000",
          "130022.265000",
          "130024.765000",
          "130027.265000",
          "130029.765000",
          "130032.265000",
          "130035.265000",
          "130037.765000",
          "130040.265000",
          "130042.765000",
          "130045.265000",
          "130048.265000",
          "130050.765000",
          "130053.265000",
          "130055.765000",
          "130058.265000",
          "130101.265000",
          "130103.765000",
          "130106.265000",
          "130108.765000",
          "130111.265000",
          "130114.265000",
          "130116.765000",
          "130119.265000",
          "130121.765000",
          "130124.265000",
          "130127.265000",
          "130129.765000",
          "130132.265000",
          "130134.765000",
          "130137.265000",
          "130140.265000",
          "130142.765000",
          "130145.265000",
          "130147.765000",
          "130150.265000",
          "130153.265000",
          "130155.765000",
          "130158.265000",
          "130200.765000",
          "130203.265000",
          "130206.265000",
          "130208.765000",
          "130211.265000",
          "130213.765000",
          "130216.265000",
          "130219.265000",
          "130221.765000",
          "130224.265000",
          "130226.765000",
          "130229.265000",
          "130232.265000",
          "130234.765000",
          "130237.265000",
          "130239.765000",
          "130242.265000",
          "130245.265000",
          "130247.765000",
          "130250.265000",
          "130252.765000",
          "130255.265000",
          "130258.265000",
          "130300.765000",
          "130303.265000",
          "130305.765000",
          "130308.265000",
          "130311.265000",
          "130313.765000",
          "130316.265000",
          "130318.765000",
          "130321.265000",
          "130324.265000",
          "130326.765000",
          "130329.265000",
          "130331.765000",
          "130334.265000",
          "130337.265000",
          "130339.765000",
          "130342.265000",
          "130344.765000",
          "130347.265000",
          "130350.265000",
          "130352.765000",
          "130355.265000",
          "130357.765000",
          "130400.265000",
          "130403.265000",
          "130405.765000",
          "130408.265000",
          "130410.765000",
          "130413.265000",
          "130416.265000",
          "130418.765000",
          "130425.984000"
        ],
        "InstanceNumber": [
          1,
          2,
          3,
          4,
          5,
          6,
          7,
          8,
          9,
          10,
          11,
          12,
          13,
          14,
          15,
          16,
          17,
          18,
          19,
          20,
          21,
          22,
          23,
          24,
          25,
          26,
          27,
          28,
          29,
          30,
          31,
          32,
          33,
          34,
          35,
          36,
          37,
          38,
          39,
          40,
          41,
          42,
          43,
          44,
          45,
          46,
          47,
          48,
          49,
          50,
          51,
          52,
          53,
          54,
          55,
          56,
          57,
          58,
          59,
          60,
          61,
          62,
          63,
          64,
          65,
          66,
          67,
          68,
          69,
          70,
          71,
          72,
          73,
          74,
          75,
          76,
          77,
          78,
          79,
          80,
          81,
          82,
          83,
          84,
          85,
          86,
          87,
          88,
          89,
          90,
          91,
          92,
          93,
          94,
          95,
          96,
          97,
          98,
          99,
          100,
          101,
          102,
          103,
          104,
          105,
          106,
          107,
          108,
          109,
          110,
          111,
          112,
          113,
          114,
          115,
          116,
          117,
          118,
          119,
          120,
          121,
          122,
          123,
          124,
          125,
          126,
          127,
          128,
          129,
          130,
          131,
          132,
          133,
          134,
          135,
          136,
          137,
          138,
          139,
          140,
          141,
          142,
          143,
          144,
          145,
          146,
          147,
          148,
          149,
          150
        ],
        "WindowCenter": [
          966.0,
          964.0,
          962.0,
          960.0,
          960.0,
          962.0,
          963.0,
          966.0,
          963.0,
          960.0,
          960.0,
          959.0,
          961.0,
          961.0,
          964.0,
          961.0,
          960.0,
          963.0,
          968.0,
          963.0,
          962.0,
          961.0,
          961.0,
          960.0,
          960.0,
          963.0,
          964.0,
          963.0,
          962.0,
          963.0,
          962.0,
          963.0,
          963.0,
          963.0,
          964.0,
          964.0,
          965.0,
          965.0,
          967.0,
          966.0,
          967.0,
          968.0,
          966.0,
          965.0,
          967.0,
          963.0,
          964.0,
          963.0,
          964.0,
          961.0,
          961.0,
          961.0,
          963.0,
          962.0,
          961.0,
          961.0,
          961.0,
          963.0,
          964.0,
          962.0,
          961.0,
          961.0,
          961.0,
          961.0,
          960.0,
          963.0,
          967.0,
          966.0,
          964.0,
          965.0,
          964.0,
          964.0,
          963.0,
          964.0,
          964.0,
          965.0,
          965.0,
          964.0,
          965.0,
          967.0,
          965.0,
          960.0,
          959.0,
          959.0,
          961.0,
          963.0,
          966.0,
          965.0,
          963.0,
          963.0,
          964.0,
          963.0,
          963.0,
          963.0,
          964.0,
          964.0,
          964.0,
          965.0,
          965.0,
          965.0,
          966.0,
          966.0,
          965.0,
          965.0,
          965.0,
          965.0,
          965.0,
          964.0,
          963.0,
          964.0,
          964.0,
          963.0,
          963.0,
          964.0,
          964.0,
          963.0,
          962.0,
          962.0,
          961.0,
          961.0,
          964.0,
          963.0,
          962.0,
          963.0,
          962.0,
          960.0,
          963.0,
          962.0,
          963.0,
          963.0,
          964.0,
          963.0,
          961.0,
          963.0,
          960.0,
          959.0,
          961.0,
          962.0,
          963.0,
          963.0,
          963.0,
          962.0,
          962.0,
          963.0,
          964.0,
          963.0,
          962.0,
          962.0,
          962.0,
          962.0
        ],
        "WindowWidth": [
          2228.0,
          2222.0,
          2216.0,
          2209.0,
          2212.0,
          2218.0,
          2221.0,
          2230.0,
          2218.0,
          2210.0,
          2209.0,
          2208.0,
          2215.0,
          2215.0,
          2222.0,
          2215.0,
          2212.0,
          2221.0,
          2237.0,
          2220.0,
          2216.0,
          2213.0,
          2214.0,
          2210.0,
          2210.0,
          2222.0,
          2224.0,
          2218.0,
          2217.0,
          2217.0,
          2217.0,
          2219.0,
          2220.0,
          2220.0,
          2221.0,
          2222.0,
          2225.0,
          2227.0,
          2231.0,
          2229.0,
          2232.0,
          2233.0,
          2230.0,
          2225.0,
          2231.0,
          2221.0,
          2223.0,
          2220.0,
          2222.0,
          2214.0,
          2215.0,
          2216.0,
          2220.0,
          2218.0,
          2215.0,
          2214.0,
          2214.0,
          2222.0,
          2222.0,
          2218.0,
          2215.0,
          2213.0,
          2215.0,
          2214.0,
          2211.0,
          2222.0,
          2233.0,
          2229.0,
          2223.0,
          2225.0,
          2223.0,
          2225.0,
          2221.0,
          2224.0,
          2226.0,
          2229.0,
          2225.0,
          2225.0,
          2226.0,
          2234.0,
          2225.0,
          2211.0,
          2209.0,
          2211.0,
          2217.0,
          2224.0,
          2232.0,
          2226.0,
          2222.0,
          2222.0,
          2225.0,
          2221.0,
          2220.0,
          2221.0,
          2225.0,
          2225.0,
          2225.0,
          2227.0,
          2228.0,
          2228.0,
          2230.0,
          2230.0,
          2229.0,
          2227.0,
          2228.0,
          2229.0,
          2227.0,
          2223.0,
          2222.0,
          2224.0,
          2226.0,
          2223.0,
          2223.0,
          2224.0,
          2224.0,
          2222.0,
          2219.0,
          2218.0,
          2214.0,
          2217.0,
          2225.0,
          2220.0,
          2220.0,
          2224.0,
          2219.0,
          2213.0,
          2224.0,
          2220.0,
          2222.0,
          2223.0,
          2226.0,
          2222.0,
          2218.0,
          2221.0,
          2214.0,
          2210.0,
          2218.0,
          2219.0,
          2223.0,
          2220.0,
          2221.0,
          2220.0,
          2220.0,
          2222.0,
          2226.0,
          2220.0,
          2219.0,
          2219.0,
          2221.0,
          2221.0
        ]
      },
      "slices": {}
    }
  },
  "dummy_trs": 0,
  "dvars_nstd": 79.19850337953022,
  "dvars_std": 1.0956711492617446,
  "dvars_vstd": 1.028987327986577,
  "efc": 0.5833443471508116,
  "fber": 216.61810302734375,
  "fd_mean": 0.10091150204774688,
  "fd_num": 8,
  "fd_perc": 5.333333333333333,
  "fwhm_avg": 3.125184278110993,
  "fwhm_x": 3.0545983122603224,
  "fwhm_y": 2.921191327836316,
  "fwhm_z": 3.39976319423634,
  "gcor": 0.00381354,
  "gsr_x": 0.02467465214431286,
  "gsr_y": 0.04612996429204941,
  "provenance": {
    "md5sum": "a6f9d5422afba67ca87119894f45d9d4",
    "settings": {
      "fd_thres": 0.2,
      "testing": false
    },
    "software": "mriqc",
    "version": "22.0.6",
    "webapi_port": null,
    "webapi_url": "https://mriqc.nimh.nih.gov/api/v1"
  },
  "size_t": 150,
  "size_x": 188,
  "size_y": 188,
  "size_z": 46,
  "snr": 1.8841207874513768,
  "spacing_tr": 2.5999999046325684,
  "spacing_x": 1.0957447290420532,
  "spacing_y": 1.0957447290420532,
  "spacing_z": 1.1000001430511475,
  "summary_bg_k": 44.59347416065631,
  "summary_bg_mad": 44.01351476826532,
  "summary_bg_mean": 121.73878479003906,
  "summary_bg_median": 68.75333404541016,
  "summary_bg_n": 1017553.0,
  "summary_bg_p05": 32.97999954223633,
