{
  "aor": 0.0006368707482993197,
  "aqi": 0.016948511564625846,
  "bids_meta": {
    "AcquisitionMatrixPE": 188,
    "AcquisitionNumber": 1,
    "AcquisitionTime": "12:18:36.202500",
    "BandwidthPerPixelPhaseEncode": 19.46,
    "BaseResolution": 188,
    "ConversionSoftware": "dcm2niix",
    "ConversionSoftwareVersion": "v1.0.20180606 GCC4.8.5",
    "DelayTime": 1.2,
    "DerivedVendorReportedEchoSpacing": 0.000820013,
    "DeviceSerialNumber": "18930",
    "DwellTime": 1.9e-06,
    "EchoTime": 0.02,
    "EffectiveEchoSpacing": 0.000273338,
    "FlipAngle": 80,
    "ImageComments": "Unaliased_MB2_PE2",
    "ImageOrientationPatientDICOM": [
      0.999741,
      0.00599017,
      -0.0219662,
      -0.02273,
      0.206652,
      -0.978151
    ],
    "ImageType": [
      "ORIGINAL",
      "PRIMARY",
      "M",
      "MB",
      "ND",
      "MOSAIC"
    ],
    "InPlanePhaseEncodingDirectionDICOM": "COL",
    "InstitutionAddress": "Oxfordlaan_55_Maastricht_22AAA2_Limburg_NL_6229_EV",
    "InstitutionName": "Scannexus",
    "InstitutionalDepartmentName": "MRI_7T",
    "MRAcquisitionType": "2D",
    "MagneticFieldStrength": 6.98,
    "Manufacturer": "Siemens",
    "ManufacturersModelName": "Investigational_Device_7T",
    "Modality": "MR",
    "MultibandAccelerationFactor": 2,
    "ParallelReductionFactorInPlane": 3,
    "PartialFourier": 0.75,
    "PatientPosition": "HFS",
    "PercentPhaseFOV": 100,
    "PhaseEncodingDirection": "j",
    "PhaseEncodingSteps": 141,
    "PhaseResolution": 1,
    "PixelBandwidth": 1400,
    "ProcedureStepDescription": "FeDem_Faruk",
    "ProtocolName": "cmrr_mbep2d_bold_AP_run1",
    "PulseSequenceDetails": "%CustomerSeq%_cmrr_mbep2d_bold",
    "ReceiveCoilName": "32Ch_Head_7T",
    "ReconMatrixPE": 188,
    "RepetitionTime": 2.6,
    "SAR": 0.0568019,
    "ScanOptions": "PFP_FS",
    "ScanningSequence": "EP",
    "SequenceName": "epfid2d1_188",
    "SequenceVariant": "SK_SS",
    "SeriesDescription": "cmrr_mbep2d_bold_AP_run1",
    "SeriesNumber": 10,
    "ShimSetting": [
      69,
      -183,
      563,
      479,
      -100,
      -27,
      -134,
      84
    ],
    "SliceThickness": 1.1,
    "SliceTiming": [
      0,
      0.735,
      0.0625,
      0.795,
      0.1225,
      0.8575,
      0.185,
      0.9175,
      0.245,
      0.9775,
      0.3075,
      1.04,
      0.3675,
      1.1,
      0.4275,
      1.1625,
      0.49,
      1.2225,
      0.55,
      1.285,
      0.6125,
      1.345,
      0.6725,
      0,
      0.735,
      0.0625,
      0.795,
      0.1225,
      0.8575,
      0.185,
      0.9175,
      0.245,
      0.9775,
      0.3075,
      1.04,
      0.3675,
      1.1,
      0.4275,
      1.1625,
      0.49,
      1.2225,
      0.55,
      1.285,
      0.6125,
      1.345,
      0.6725
    ],
    "SoftwareVersions": "syngo_MR_B17",
    "SpacingBetweenSlices": 1.1,
    "StationName": "MRC18930",
    "TaskName": "auditory",
    "TotalReadoutTime": 0.0511141,
    "TxRefAmp": 220,
    "dataset": "ds001942",
    "dcmmeta_affine": [
      [
        -1.0954606533050537,
        -0.024906285107135773,
        0.0014519349206238985,
        102.12840270996094
      ],
      [
        -0.006563697941601276,
        0.22643741965293884,
        -1.0762360095977783,
        23.699573516845703
      ],
      [
        -0.02406933158636093,
        1.071803331375122,
        0.22740764915943146,
        -113.40309143066406
      ],
      [
        0.0,
        0.0,
        0.0,
        1.0
      ]
    ],
    "dcmmeta_reorient_transform": [
      [
        0.0,
        -1.0,
        0.0,
        187.0
      ],
      [
        1.0,
        0.0,
        0.0,
        0.0
      ],
      [
        0.0,
        0.0,
        1.0,
        0.0
      ],
      [
        0.0,
        0.0,
        0.0,
        1.0
      ]
    ],
    "dcmmeta_shape": [
      188,
      188,
      46,
      150
    ],
    "dcmmeta_slice_dim": 2,
    "dcmmeta_version": 0.6,
    "global": {
      "const": {
        "AcquisitionMatrix": [
          188,
          0,
          0,
          188
        ],
        "AngioFlag": "N",
        "BitsAllocated": 16,
        "BitsStored": 12,
        "Columns": 1316,
        "EchoNumbers": 1,
        "EchoTime": 20.0,
        "EchoTrainLength": 1,
        "FlipAngle": 80.0,
        "HighBit": 11,
        "ImageOrientationPatient": [
          0.99974076866955,
          0.00599017065832,
          -0.0219661857296,
          -0.0227300069613,
          0.20665161924358,
          -0.9781505278062
        ],
        "ImagePositionPatient": [
          -701.26360586144,
          -197.45600313121,
          705.09628048503
        ],
        "ImageType": [
          "ORIGINAL",
          "PRIMARY",
          "M",
          "MB",
          "ND",
          "MOSAIC"
        ],
        "ImagedNucleus": "1H",
        "ImagingFrequency": 297.205536,
        "InPlanePhaseEncodingDirection": "COL",
        "LargestImagePixelValue": 4095,
        "MRAcquisitionType": "2D",
        "MagneticFieldStrength": 6.98,
        "Manufacturer": "SIEMENS",
        "ManufacturerModelName": "Investigational_Device_7T",
        "Modality": "MR",
        "NumberOfAverages": 1.0,
        "NumberOfPhaseEncodingSteps": 141,
        "PercentPhaseFieldOfView": 100.0,
        "PercentSampling": 100.0,
        "PerformedProcedureStepStartTime": "115234.593000",
        "PhotometricInterpretation": "MONOCHROME2",
        "PixelBandwidth": 1400.0,
        "PixelRepresentation": 0,
        "PixelSpacing": [
          1.0957447290421,
          1.0957447290421
        ],
        "ProtocolName": "cmrr_mbep2d_bold_AP_run1",
        "RepetitionTime": 2600.0,
        "Rows": 1316,
        "SAR": 0.05680188091971,
        "SamplesPerPixel": 1,
        "ScanOptions": [
          "PFP",
          "FS"
        ],
        "ScanningSequence": "EP",
        "SequenceName": "epfid2d1_188",
        "SequenceVariant": [
          "SK",
          "SS"
        ],
        "SeriesDescription": "cmrr_mbep2d_bold_AP_run1",
        "SeriesNumber": 10,
        "SeriesTime": "121846.187000",
        "SliceLocation": -46.497067814841,
        "SliceThickness": 1.1000000238419,
        "SmallestImagePixelValue": 0,
        "SoftwareVersions": "syngo MR B17",
        "SpacingBetweenSlices": 1.1000001137539,
        "SpecificCharacterSet": "ISO_IR 100",
        "StudyID": "1",
        "StudyTime": "115234.359000",
        "TransmitCoilName": "32Ch_Head_7T",
        "VariableFlipAngleFlag": "N",
        "WindowCenterWidthExplanation": "Algo1",
        "dBdt": 0.0
      },
      "slices": {}
    },
    "modality": "bold",
    "run_id": 1,
    "session_id": "SES03",
    "subject_id": "S05",
    "task_id": "auditory",
    "time": {
      "samples": {
        "AcquisitionNumber": [
          1,
          2,
          3,
          4,
          5,
          6,
          7,
          8,
          9,
          10,
          11,
          12,
          13,
          14,
          15,
          16,
          17,
          18,
          19,
          20,
          21,
          22,
          23,
          24,
          25,
          26,
          27,
          28,
          29,
          30,
          31,
          32,
          33,
          34,
          35,
          36,
          37,
          38,
          39,
          40,
          41,
          42,
          43,
          44,
          45,
          46,
          47,
          48,
          49,
          50,
          51,
          52,
          53,
          54,
          55,
          56,
          57,
          58,
          59,
          60,
          61,
          62,
          63,
          64,
          65,
          66,
          67,
          68,
          69,
          70,
          71,
          72,
          73,
          74,
          75,
          76,
          77,
          78,
          79,
          80,
          81,
          82,
          83,
          84,
          85,
          86,
          87,
          88,
          89,
          90,
          91,
          92,
          93,
          94,
          95,
          96,
          97,
          98,
          99,
          100,
          101,
          102,
          103,
          104,
          105,
          106,
          107,
          108,
          109,
          110,
          111,
          112,
          113,
          114,
          115,
          116,
          117,
          118,
          119,
          120,
          121,
          122,
          123,
          124,
          125,
          126,
          127,
          128,
          129,
          130,
          131,
          132,
          133,
          134,
          135,
          136,
          137,
          138,
          139,
          140,
          141,
          142,
          143,
          144,
          145,
          146,
          147,
          148,
          149,
          150
        ],
        "AcquisitionTime": [
          "121836.202500",
          "121838.815000",
          "121841.425000",
          "121844.035000",
          "121846.645000",
          "121849.255000",
          "121851.865000",
          "121854.477500",
          "121857.087500",
          "121859.697500",
          "121902.307500",
          "121904.917500",
          "121907.530000",
          "121910.140000",
          "121912.750000",
          "121915.360000",
          "121917.970000",
          "121920.580000",
          "121923.192500",
          "121925.802500",
          "121928.412500",
          "121931.022500",
          "121933.632500",
          "121936.242500",
          "121938.855000",
          "121941.465000",
          "121944.075000",
          "121946.685000",
          "121949.295000",
          "121951.907500",
          "121954.517500",
          "121957.127500",
          "121959.737500",
          "122002.347500",
          "122004.957500",
          "122007.570000",
          "122010.180000",
          "122012.790000",
          "122015.400000",
          "122018.010000",
          "122020.620000",
          "122023.232500",
          "122025.842500",
          "122028.452500",
          "122031.062500",
          "122033.672500",
          "122036.285000",
          "122038.895000",
          "122041.505000",
          "122044.115000",
          "122046.725000",
          "122049.335000",
          "122051.947500",
          "122054.557500",
          "122057.167500",
          "122059.777500",
          "122102.387500",
          "122104.997500",
          "122107.610000",
          "122110.220000",
          "122112.830000",
          "122115.440000",
          "122118.050000",
          "122120.662500",
          "122123.272500",
          "122125.882500",
          "122128.492500",
          "122131.102500",
          "122133.712500",
          "122136.325000",
          "122138.935000",
          "122141.545000",
          "122144.155000",
          "122146.765000",
          "122149.375000",
          "122151.987500",
          "122154.597500",
          "122157.207500",
          "122159.817500",
          "122202.427500",
          "122205.040000",
          "122207.650000",
          "122210.260000",
          "122212.870000",
          "122215.480000",
          "122218.090000",
          "122220.702500",
          "122223.312500",
          "122225.922500",
          "122228.532500",
          "122231.142500",
          "122233.752500",
          "122236.365000",
          "122238.975000",
          "122241.585000",
          "122244.195000",
          "122246.805000",
          "122249.417500",
          "122252.027500",
          "122254.637500",
          "122257.247500",
          "122259.857500",
          "122302.467500",
          "122305.080000",
          "122307.690000",
          "122310.300000",
          "122312.910000",
          "122315.520000",
          "122318.130000",
          "122320.742500",
          "122323.352500",
          "122325.962500",
          "122328.572500",
          "122331.182500",
          "122333.795000",
          "122336.405000",
          "122339.015000",
          "122341.625000",
          "122344.235000",
          "122346.845000",
          "122349.457500",
          "122352.067500",
          "122354.677500",
          "122357.287500",
          "122359.897500",
          "122402.507500",
          "122405.120000",
          "122407.730000",
          "122410.340000",
          "122412.950000",
          "122415.560000",
          "122418.172500",
          "122420.782500",
          "122423.392500",
          "122426.002500",
          "122428.612500",
          "122431.222500",
          "122433.835000",
          "122436.445000",
          "122439.055000",
          "122441.665000",
          "122444.275000",
          "122446.885000",
          "122449.497500",
          "122452.107500",
          "122454.717500",
          "122457.327500",
          "122459.937500",
          "122502.550000",
          "122505.160000"
        ],
        "ContentTime": [
          "121846.187000",
          "121846.671000",
          "121847.171000",
          "121849.171000",
          "121851.671000",
          "121854.171000",
          "121856.671000",
          "121859.671000",
          "121902.171000",
          "121904.671000",
          "121907.171000",
          "121910.171000",
          "121912.671000",
          "121915.171000",
          "121917.671000",
          "121920.171000",
          "121923.171000",
          "121925.671000",
          "121928.171000",
          "121930.671000",
          "121933.171000",
          "121935.671000",
          "121938.671000",
          "121941.171000",
          "121943.671000",
          "121946.171000",
          "121949.171000",
          "121951.671000",
          "121954.171000",
          "121956.671000",
          "121959.171000",
          "122001.671000",
          "122004.671000",
          "122007.171000",
          "122009.671000",
          "122012.171000",
          "122015.171000",
          "122017.671000",
          "122020.171000",
          "122022.671000",
          "122025.171000",
          "122028.171000",
          "122030.671000",
          "122033.171000",
          "122035.671000",
          "122038.171000",
          "122040.671000",
          "122043.671000",
          "122046.171000",
          "122048.671000",
          "122051.171000",
          "122054.171000",
          "122056.671000",
          "122059.171000",
          "122101.671000",
          "122104.171000",
          "122107.171000",
          "122109.671000",
          "122112.171000",
          "122114.671000",
          "122117.171000",
          "122120.171000",
          "122122.671000",
          "122125.171000",
          "122127.671000",
          "122130.171000",
          "122133.171000",
          "122135.671000",
          "122138.171000",
          "122140.671000",
          "122143.171000",
          "122146.171000",
          "122148.671000",
          "122151.171000",
          "122153.671000",
          "122156.171000",
          "122159.171000",
          "122201.671000",
          "122204.171000",
          "122206.671000",
          "122209.171000",
          "122212.171000",
          "122214.671000",
          "122217.171000",
          "122219.671000",
          "122222.171000",
          "122225.171000",
          "122227.671000",
          "122230.171000",
          "122232.671000",
          "122235.171000",
          "122238.171000",
          "122240.671000",
          "122243.171000",
          "122245.671000",
          "122248.171000",
          "122250.671000",
          "122253.671000",
          "122256.171000",
          "122258.671000",
          "122301.171000",
          "122304.171000",
          "122306.671000",
          "122309.171000",
          "122311.671000",
          "122314.171000",
          "122317.171000",
          "122319.671000",
          "122322.171000",
          "122324.671000",
          "122327.171000",
          "122330.171000",
          "122332.671000",
          "122335.171000",
          "122337.671000",
          "122340.171000",
          "122343.171000",
          "122345.671000",
          "122348.171000",
          "122350.671000",
          "122353.171000",
          "122355.671000",
          "122358.671000",
          "122401.171000",
          "122403.671000",
          "122406.171000",
          "122409.171000",
          "122411.671000",
          "122414.171000",
          "122416.671000",
          "122419.171000",
          "122422.171000",
          "122424.671000",
          "122427.171000",
          "122429.671000",
          "122432.171000",
          "122434.671000",
          "122437.671000",
          "122440.171000",
          "122442.671000",
          "122445.171000",
          "122448.171000",
          "122450.671000",
          "122453.171000",
          "122455.671000",
          "122458.171000",
          "122500.671000",
          "122503.671000",
          "122506.171000",
          "122513.453000"
        ],
        "InstanceCreationTime": [
          "121846.187000",
          "121846.671000",
          "121847.171000",
          "121849.171000",
          "121851.671000",
          "121854.171000",
          "121856.671000",
          "121859.671000",
          "121902.171000",
          "121904.671000",
          "121907.171000",
          "121910.171000",
          "121912.671000",
          "121915.171000",
          "121917.671000",
          "121920.171000",
          "121923.171000",
          "121925.671000",
          "121928.171000",
          "121930.671000",
          "121933.171000",
          "121935.671000",
          "121938.671000",
          "121941.171000",
          "121943.671000",
          "121946.171000",
          "121949.171000",
          "121951.671000",
          "121954.171000",
          "121956.671000",
          "121959.171000",
          "122001.671000",
          "122004.671000",
          "122007.171000",
          "122009.671000",
          "122012.171000",
          "122015.171000",
          "122017.671000",
          "122020.171000",
          "122022.671000",
          "122025.171000",
          "122028.171000",
          "122030.671000",
          "122033.171000",
          "122035.671000",
          "122038.171000",
          "122040.671000",
          "122043.671000",
          "122046.171000",
          "122048.671000",
          "122051.171000",
          "122054.171000",
          "122056.671000",
          "122059.171000",
          "122101.671000",
          "122104.171000",
          "122107.171000",
          "122109.671000",
          "122112.171000",
          "122114.671000",
          "122117.171000",
          "122120.171000",
          "122122.671000",
          "122125.171000",
          "122127.671000",
          "122130.171000",
          "122133.171000",
          "122135.671000",
          "122138.171000",
          "122140.671000",
          "122143.171000",
          "122146.171000",
          "122148.671000",
          "122151.171000",
          "122153.671000",
          "122156.171000",
          "122159.171000",
          "122201.671000",
          "122204.171000",
          "122206.671000",
          "122209.171000",
          "122212.171000",
          "122214.671000",
          "122217.171000",
          "122219.671000",
          "122222.171000",
          "122225.171000",
          "122227.671000",
          "122230.171000",
          "122232.671000",
          "122235.171000",
          "122238.171000",
          "122240.671000",
          "122243.171000",
          "122245.671000",
          "122248.171000",
          "122250.671000",
          "122253.671000",
          "122256.171000",
          "122258.671000",
          "122301.171000",
          "122304.171000",
          "122306.671000",
          "122309.171000",
          "122311.671000",
          "122314.171000",
          "122317.171000",
          "122319.671000",
          "122322.171000",
          "122324.671000",
          "122327.171000",
          "122330.171000",
          "122332.671000",
          "122335.171000",
          "122337.671000",
          "122340.171000",
          "122343.171000",
          "122345.671000",
          "122348.171000",
          "122350.671000",
          "122353.171000",
          "122355.671000",
          "122358.671000",
          "122401.171000",
          "122403.671000",
          "122406.171000",
          "122409.171000",
          "122411.671000",
          "122414.171000",
          "122416.671000",
          "122419.171000",
          "122422.171000",
          "122424.671000",
          "122427.171000",
          "122429.671000",
          "122432.171000",
          "122434.671000",
          "122437.671000",
          "122440.171000",
          "122442.671000",
          "122445.171000",
          "122448.171000",
          "122450.671000",
          "122453.171000",
          "122455.671000",
          "122458.171000",
          "122500.671000",
          "122503.671000",
          "122506.171000",
          "122513.453000"
        ],
        "InstanceNumber": [
          1,
          2,
          3,
          4,
          5,
          6,
          7,
          8,
          9,
          10,
          11,
          12,
          13,
          14,
          15,
          16,
          17,
          18,
          19,
          20,
          21,
          22,
          23,
          24,
          25,
          26,
          27,
          28,
          29,
          30,
          31,
          32,
          33,
          34,
          35,
          36,
          37,
          38,
          39,
          40,
          41,
          42,
          43,
          44,
          45,
          46,
          47,
          48,
          49,
          50,
          51,
          52,
          53,
          54,
          55,
          56,
          57,
          58,
          59,
          60,
          61,
          62,
          63,
          64,
          65,
          66,
          67,
          68,
          69,
          70,
          71,
          72,
          73,
          74,
          75,
          76,
          77,
          78,
          79,
          80,
          81,
          82,
          83,
          84,
          85,
          86,
          87,
          88,
          89,
          90,
          91,
          92,
          93,
          94,
          95,
          96,
          97,
          98,
          99,
          100,
          101,
          102,
          103,
          104,
          105,
          106,
          107,
          108,
          109,
          110,
          111,
          112,
          113,
          114,
          115,
          116,
          117,
          118,
          119,
          120,
          121,
          122,
          123,
          124,
          125,
          126,
          127,
          128,
          129,
          130,
          131,
          132,
          133,
          134,
          135,
          136,
          137,
          138,
          139,
          140,
          141,
          142,
          143,
          144,
          145,
          146,
          147,
          148,
          149,
          150
        ],
        "WindowCenter": [
          970.0,
          970.0,
          970.0,
          968.0,
          967.0,
          965.0,
          965.0,
          967.0,
          967.0,
          967.0,
          968.0,
          967.0,
          966.0,
          967.0,
          967.0,
          966.0,
          966.0,
          966.0,
          967.0,
          967.0,
          968.0,
          967.0,
          966.0,
          966.0,
          966.0,
          967.0,
          968.0,
          966.0,
          966.0,
          967.0,
          967.0,
          966.0,
          967.0,
          967.0,
          965.0,
          966.0,
          967.0,
          966.0,
          966.0,
          967.0,
          966.0,
          966.0,
          969.0,
          967.0,
          967.0,
          967.0,
          966.0,
          967.0,
          966.0,
          965.0,
          966.0,
          966.0,
          967.0,
          966.0,
          966.0,
          967.0,
          967.0,
          966.0,
          967.0,
          966.0,
          965.0,
          967.0,
          966.0,
          966.0,
          966.0,
          967.0,
          966.0,
          966.0,
          968.0,
          968.0,
          964.0,
          962.0,
          964.0,
          966.0,
          967.0,
          966.0,
          967.0,
          967.0,
          966.0,
          966.0,
          966.0,
          966.0,
          966.0,
          965.0,
          964.0,
          964.0,
          966.0,
          965.0,
          964.0,
          964.0,
          964.0,
          965.0,
          966.0,
          964.0,
          963.0,
          964.0,
          965.0,
          966.0,
          966.0,
          963.0,
          962.0,
          964.0,
          965.0,
          964.0,
          964.0,
          967.0,
          965.0,
          965.0,
          966.0,
          965.0,
          964.0,
          963.0,
          965.0,
          965.0,
          963.0,
          965.0,
          965.0,
          964.0,
          965.0,
          967.0,
          965.0,
          964.0,
          964.0,
          963.0,
          963.0,
          963.0,
          964.0,
          967.0,
          966.0,
          966.0,
          965.0,
          965.0,
          965.0,
          965.0,
          965.0,
          964.0,
          964.0,
          963.0,
          964.0,
          963.0,
          962.0,
          961.0,
          963.0,
          964.0,
          966.0,
          966.0,
          964.0,
          965.0,
          965.0,
          964.0
        ],
        "WindowWidth": [
          2244.0,
          2243.0,
          2242.0,
          2236.0,
          2232.0,
          2229.0,
          2228.0,
          2234.0,
          2236.0,
          2235.0,
          2238.0,
          2236.0,
          2233.0,
          2235.0,
          2235.0,
          2231.0,
          2232.0,
          2234.0,
          2236.0,
          2235.0,
          2238.0,
          2234.0,
          2232.0,
          2233.0,
          2234.0,
          2235.0,
          2238.0,
          2232.0,
          2234.0,
          2236.0,
          2234.0,
          2232.0,
          2235.0,
          2234.0,
          2230.0,
          2233.0,
          2234.0,
          2232.0,
          2231.0,
          2236.0,
          2231.0,
          2234.0,
          2241.0,
          2234.0,
          2234.0,
          2234.0,
          2233.0,
          2235.0,
          2232.0,
          2229.0,
          2232.0,
          2231.0,
          2236.0,
          2231.0,
          2234.0,
          2236.0,
          2234.0,
          2231.0,
          2235.0,
          2230.0,
          2228.0,
          2235.0,
          2231.0,
          2231.0,
          2231.0,
          2233.0,
          2233.0,
          2233.0,
          2240.0,
          2236.0,
          2226.0,
          2220.0,
          2226.0,
          2231.0,
          2233.0,
          2232.0,
          2235.0,
          2234.0,
          2232.0,
          2233.0,
          2230.0,
          2233.0,
          2232.0,
          2231.0,
          2226.0,
          2227.0,
          2234.0,
          2228.0,
          2226.0,
          2226.0,
          2224.0,
          2228.0,
          2231.0,
          2224.0,
          2223.0,
          2226.0,
          2230.0,
          2233.0,
          2234.0,
          2223.0,
          2220.0,
          2226.0,
          2230.0,
          2226.0,
          2226.0,
          2234.0,
          2228.0,
          2230.0,
          2232.0,
          2228.0,
          2224.0,
          2223.0,
          2228.0,
          2228.0,
          2224.0,
          2230.0,
          2229.0,
          2227.0,
          2230.0,
          2234.0,
          2227.0,
          2225.0,
          2224.0,
          2224.0,
          2224.0,
          2224.0,
          2226.0,
          2236.0,
          2232.0,
          2230.0,
          2229.0,
          2229.0,
          2228.0,
          2231.0,
          2230.0,
          2226.0,
          2225.0,
          2223.0,
          2226.0,
          2223.0,
          2218.0,
          2218.0,
          2221.0,
          2225.0,
          2231.0,
          2231.0,
          2226.0,
          2228.0,
          2228.0,
          2223.0
        ]
      },
      "slices": {}
    }
  },
  "dummy_trs": 3,
  "dvars_nstd": 74.38150959808216,
  "dvars_std": 1.0275711723972603,
  "dvars_vstd": 1.001788134657534,
  "efc": 0.5823656725790505,
  "fber": 221.89915466308594,
  "fd_mean": 0.07712897012405842,
  "fd_num": 4,
  "fd_perc": 2.7210884353741496,
  "fwhm_avg": 3.1603559317704595,
  "fwhm_x": 3.076546854984343,
  "fwhm_y": 2.964212296818035,
  "fwhm_z": 3.4403086435090007,
  "gcor": 0.00272201,
  "gsr_x": 0.025275778025388718,
  "gsr_y": 0.04770085960626602,
  "provenance": {
    "md5sum": "d2fc393630eb7ad38b7f42e98faf7552",
    "settings": {
      "fd_thres": 0.2,
      "testing": false
    },
    "software": "mriqc",
    "version": "23.0.1",
    "webapi_port": null,
    "webapi_url": "https://mriqc.nimh.nih.gov/api/v1"
  },
  "size_t": 147,
  "size_x": 188,
  "size_y": 188,
  "size_z": 46,
  "snr": 1.867339313192434,
  "spacing_tr": 2.5999999046325684,
  "spacing_x": 1.0957447290420532,
  "spacing_y": 1.0957447290420532,
  "spacing_z": 1.1000001430511475,
  "summary_bg_k": 46.30761137787957,
  "summary_bg_mad": 43.338379443292524,
  "summary_bg_mean": 122.38636016845703,
  "summary_bg_median": 68.149658203125,
  "summary_bg_n": 1016426.0,
  "summary_bg_p05": 33.238094329833984,
  "summary_bg_p95": 374.0169906616211,
