{
  "aor": 0.0013581333333333335,
  "aqi": 0.015678712,
  "bids_meta": {
    "AcquisitionMatrixPE": 188,
    "AcquisitionNumber": 1,
    "AcquisitionTime": "13:47:48.070000",
    "BandwidthPerPixelPhaseEncode": 19.46,
    "BaseResolution": 188,
    "ConversionSoftware": "dcm2niix",
    "ConversionSoftwareVersion": "v1.0.20180606 GCC4.8.5",
    "DelayTime": 1.2,
    "DerivedVendorReportedEchoSpacing": 0.000820013,
    "DeviceSerialNumber": "18930",
    "DwellTime": 1.9e-06,
    "EchoTime": 0.02,
    "EffectiveEchoSpacing": 0.000273338,
    "FlipAngle": 80,
    "ImageComments": "Unaliased_MB2_PE2",
    "ImageOrientationPatientDICOM": [
      0.999741,
      0.00599017,
      -0.0219662,
      -0.02273,
      0.206652,
      -0.978151
    ],
    "ImageType": [
      "ORIGINAL",
      "PRIMARY",
      "M",
      "MB",
      "ND",
      "MOSAIC"
    ],
    "InPlanePhaseEncodingDirectionDICOM": "COL",
    "InstitutionAddress": "Oxfordlaan_55_Maastricht_22AAA2_Limburg_NL_6229_EV",
    "InstitutionName": "Scannexus",
    "InstitutionalDepartmentName": "MRI_7T",
    "MRAcquisitionType": "2D",
    "MagneticFieldStrength": 6.98,
    "Manufacturer": "Siemens",
    "ManufacturersModelName": "Investigational_Device_7T",
    "Modality": "MR",
    "MultibandAccelerationFactor": 2,
    "ParallelReductionFactorInPlane": 3,
    "PartialFourier": 0.75,
    "PatientPosition": "HFS",
    "PercentPhaseFOV": 100,
    "PhaseEncodingDirection": "j",
    "PhaseEncodingSteps": 141,
    "PhaseResolution": 1,
    "PixelBandwidth": 1400,
    "ProcedureStepDescription": "FeDem_Faruk",
    "ProtocolName": "cmrr_mbep2d_bold_AP_run12",
    "PulseSequenceDetails": "%CustomerSeq%_cmrr_mbep2d_bold",
    "ReceiveCoilName": "32Ch_Head_7T",
    "ReconMatrixPE": 188,
    "RepetitionTime": 2.6,
    "SAR": 0.0570344,
    "ScanOptions": "PFP_FS",
    "ScanningSequence": "EP",
    "SequenceName": "epfid2d1_188",
    "SequenceVariant": "SK_SS",
    "SeriesDescription": "cmrr_mbep2d_bold_AP_run12",
    "SeriesNumber": 23,
    "ShimSetting": [
      69,
      -183,
      563,
      479,
      -100,
      -27,
      -134,
      84
    ],
    "SliceThickness": 1.1,
    "SliceTiming": [
      0,
      0.7325,
      0.06,
      0.7925,
      0.12,
      0.855,
      0.1825,
      0.915,
      0.2425,
      0.9775,
      0.305,
      1.0375,
      0.365,
      1.1,
      0.4275,
      1.16,
      0.4875,
      1.22,
      0.55,
      1.2825,
      0.61,
      1.3425,
      0.67,
      0,
      0.7325,
      0.06,
      0.7925,
      0.12,
      0.855,
      0.1825,
      0.915,
      0.2425,
      0.9775,
      0.305,
      1.0375,
      0.365,
      1.1,
      0.4275,
      1.16,
      0.4875,
      1.22,
      0.55,
      1.2825,
      0.61,
      1.3425,
      0.67
    ],
    "SoftwareVersions": "syngo_MR_B17",
    "SpacingBetweenSlices": 1.1,
    "StationName": "MRC18930",
    "TaskName": "auditory",
    "TotalReadoutTime": 0.0511141,
    "TxRefAmp": 220,
    "dataset": "ds001942",
    "dcmmeta_affine": [
      [
        -1.0954606533050537,
        -0.024906285107135773,
        0.0014519349206238985,
        102.12840270996094
      ],
      [
        -0.006563697941601276,
        0.22643741965293884,
        -1.0762360095977783,
        23.699573516845703
      ],
      [
        -0.02406933158636093,
        1.071803331375122,
        0.22740764915943146,
        -113.40309143066406
      ],
      [
        0.0,
        0.0,
        0.0,
        1.0
      ]
    ],
    "dcmmeta_reorient_transform": [
      [
        0.0,
        -1.0,
        0.0,
        187.0
      ],
      [
        1.0,
        0.0,
        0.0,
        0.0
      ],
      [
        0.0,
        0.0,
        1.0,
        0.0
      ],
      [
        0.0,
        0.0,
        0.0,
        1.0
      ]
    ],
    "dcmmeta_shape": [
      188,
      188,
      46,
      150
    ],
    "dcmmeta_slice_dim": 2,
    "dcmmeta_version": 0.6,
    "global": {
      "const": {
        "AcquisitionMatrix": [
          188,
          0,
          0,
          188
        ],
        "AngioFlag": "N",
        "BitsAllocated": 16,
        "BitsStored": 12,
        "Columns": 1316,
        "EchoNumbers": 1,
        "EchoTime": 20.0,
        "EchoTrainLength": 1,
        "FlipAngle": 80.0,
        "HighBit": 11,
        "ImageOrientationPatient": [
          0.99974076866955,
          0.00599017065832,
          -0.0219661857296,
          -0.0227300069613,
          0.20665161924358,
          -0.9781505278062
        ],
        "ImagePositionPatient": [
          -701.26360586144,
          -197.45600313121,
          705.09628048503
        ],
        "ImageType": [
          "ORIGINAL",
          "PRIMARY",
          "M",
          "MB",
          "ND",
          "MOSAIC"
        ],
        "ImagedNucleus": "1H",
        "ImagingFrequency": 297.205583,
        "InPlanePhaseEncodingDirection": "COL",
        "LargestImagePixelValue": 4095,
        "MRAcquisitionType": "2D",
        "MagneticFieldStrength": 6.98,
        "Manufacturer": "SIEMENS",
        "ManufacturerModelName": "Investigational_Device_7T",
        "Modality": "MR",
        "NumberOfAverages": 1.0,
        "NumberOfPhaseEncodingSteps": 141,
        "PercentPhaseFieldOfView": 100.0,
        "PercentSampling": 100.0,
        "PerformedProcedureStepStartTime": "115234.593000",
        "PhotometricInterpretation": "MONOCHROME2",
        "PixelBandwidth": 1400.0,
        "PixelRepresentation": 0,
        "PixelSpacing": [
          1.0957447290421,
          1.0957447290421
        ],
        "ProtocolName": "cmrr_mbep2d_bold_AP_run12",
        "RepetitionTime": 2600.0,
        "Rows": 1316,
        "SAR": 0.05703437050253,
        "SamplesPerPixel": 1,
        "ScanOptions": [
          "PFP",
          "FS"
        ],
        "ScanningSequence": "EP",
        "SequenceName": "epfid2d1_188",
        "SequenceVariant": [
          "SK",
          "SS"
        ],
        "SeriesDescription": "cmrr_mbep2d_bold_AP_run12",
        "SeriesNumber": 23,
        "SeriesTime": "134758.296000",
        "SliceLocation": -46.497067814841,
        "SliceThickness": 1.1000000238419,
        "SmallestImagePixelValue": 0,
        "SoftwareVersions": "syngo MR B17",
        "SpacingBetweenSlices": 1.1000001137539,
        "SpecificCharacterSet": "ISO_IR 100",
        "StudyID": "1",
        "StudyTime": "115234.359000",
        "TransmitCoilName": "32Ch_Head_7T",
        "VariableFlipAngleFlag": "N",
        "WindowCenterWidthExplanation": "Algo1",
        "dBdt": 0.0
      },
      "slices": {}
    },
    "modality": "bold",
    "run_id": 12,
    "session_id": "SES03",
    "subject_id": "S05",
    "task_id": "auditory",
    "time": {
      "samples": {
        "AcquisitionNumber": [
          1,
          2,
          3,
          4,
          5,
          6,
          7,
          8,
          9,
          10,
          11,
          12,
          13,
          14,
          15,
          16,
          17,
          18,
          19,
          20,
          21,
          22,
          23,
          24,
          25,
          26,
          27,
          28,
          29,
          30,
          31,
          32,
          33,
          34,
          35,
          36,
          37,
          38,
          39,
          40,
          41,
          42,
          43,
          44,
          45,
          46,
          47,
          48,
          49,
          50,
          51,
          52,
          53,
          54,
          55,
          56,
          57,
          58,
          59,
          60,
          61,
          62,
          63,
          64,
          65,
          66,
          67,
          68,
          69,
          70,
          71,
          72,
          73,
          74,
          75,
          76,
          77,
          78,
          79,
          80,
          81,
          82,
          83,
          84,
          85,
          86,
          87,
          88,
          89,
          90,
          91,
          92,
          93,
          94,
          95,
          96,
          97,
          98,
          99,
          100,
          101,
          102,
          103,
          104,
          105,
          106,
          107,
          108,
          109,
          110,
          111,
          112,
          113,
          114,
          115,
          116,
          117,
          118,
          119,
          120,
          121,
          122,
          123,
          124,
          125,
          126,
          127,
          128,
          129,
          130,
          131,
          132,
          133,
          134,
          135,
          136,
          137,
          138,
          139,
          140,
          141,
          142,
          143,
          144,
          145,
          146,
          147,
          148,
          149,
          150
        ],
        "AcquisitionTime": [
          "134748.070000",
          "134750.680000",
          "134753.290000",
          "134755.900000",
          "134758.510000",
          "134801.120000",
          "134803.732500",
          "134806.342500",
          "134808.952500",
          "134811.562500",
          "134814.172500",
          "134816.785000",
          "134819.395000",
          "134822.005000",
          "134824.615000",
          "134827.225000",
          "134829.835000",
          "134832.447500",
          "134835.057500",
          "134837.667500",
          "134840.277500",
          "134842.887500",
          "134845.497500",
          "134848.110000",
          "134850.720000",
          "134853.330000",
          "134855.940000",
          "134858.550000",
          "134901.162500",
          "134903.772500",
          "134906.382500",
          "134908.992500",
          "134911.602500",
          "134914.212500",
          "134916.825000",
          "134919.435000",
          "134922.045000",
          "134924.655000",
          "134927.265000",
          "134929.875000",
          "134932.487500",
          "134935.097500",
          "134937.707500",
          "134940.317500",
          "134942.927500",
          "134945.540000",
          "134948.150000",
          "134950.760000",
          "134953.370000",
          "134955.980000",
          "134958.590000",
          "135001.202500",
          "135003.812500",
          "135006.422500",
          "135009.032500",
          "135011.642500",
          "135014.252500",
          "135016.865000",
          "135019.475000",
          "135022.085000",
          "135024.695000",
          "135027.305000",
          "135029.917500",
          "135032.527500",
          "135035.137500",
          "135037.747500",
          "135040.357500",
          "135042.967500",
          "135045.580000",
          "135048.190000",
          "135050.800000",
          "135053.410000",
          "135056.020000",
          "135058.630000",
          "135101.242500",
          "135103.852500",
          "135106.462500",
          "135109.072500",
          "135111.682500",
          "135114.295000",
          "135116.905000",
          "135119.515000",
          "135122.125000",
          "135124.735000",
          "135127.345000",
          "135129.957500",
          "135132.567500",
          "135135.177500",
          "135137.787500",
          "135140.397500",
          "135143.007500",
          "135145.620000",
          "135148.230000",
          "135150.840000",
          "135153.450000",
          "135156.060000",
          "135158.672500",
          "135201.282500",
          "135203.892500",
          "135206.502500",
          "135209.112500",
          "135211.722500",
          "135214.335000",
          "135216.945000",
          "135219.555000",
          "135222.165000",
          "135224.775000",
          "135227.385000",
          "135229.997500",
          "135232.607500",
          "135235.217500",
          "135237.827500",
          "135240.437500",
          "135243.050000",
          "135245.660000",
          "135248.270000",
          "135250.880000",
          "135253.490000",
          "135256.100000",
          "135258.712500",
          "135301.322500",
          "135303.932500",
          "135306.542500",
          "135309.152500",
          "135311.762500",
          "135314.375000",
          "135316.985000",
          "135319.595000",
          "135322.205000",
          "135324.815000",
          "135327.427500",
          "135330.037500",
          "135332.647500",
          "135335.257500",
          "135337.867500",
          "135340.477500",
          "135343.090000",
          "135345.700000",
          "135348.310000",
          "135350.920000",
          "135353.530000",
          "135356.140000",
          "135358.752500",
          "135401.362500",
          "135403.972500",
          "135406.582500",
          "135409.192500",
          "135411.805000",
          "135414.415000",
          "135417.025000"
        ],
        "ContentTime": [
          "134758.296000",
          "134758.296000",
          "134759.281000",
          "134801.281000",
          "134803.781000",
          "134806.281000",
          "134809.281000",
          "134811.781000",
          "134814.281000",
          "134816.781000",
          "134819.281000",
          "134822.281000",
          "134824.781000",
          "134827.281000",
          "134829.781000",
          "134832.281000",
          "134835.281000",
          "134837.781000",
          "134840.281000",
          "134842.781000",
          "134845.281000",
          "134848.281000",
          "134850.781000",
          "134853.281000",
          "134855.781000",
          "134858.281000",
          "134901.281000",
          "134903.781000",
          "134906.281000",
          "134908.781000",
          "134911.281000",
          "134914.281000",
          "134916.781000",
          "134919.281000",
          "134921.781000",
          "134924.281000",
          "134927.281000",
          "134929.781000",
          "134932.281000",
          "134934.781000",
          "134937.281000",
          "134940.281000",
          "134942.781000",
          "134945.281000",
          "134947.781000",
          "134950.281000",
          "134953.281000",
          "134955.781000",
          "134958.281000",
          "135000.781000",
          "135003.281000",
          "135006.281000",
          "135008.781000",
          "135011.281000",
          "135013.781000",
          "135016.281000",
          "135019.281000",
          "135021.781000",
          "135024.281000",
          "135026.781000",
          "135029.281000",
          "135032.281000",
          "135034.781000",
          "135037.281000",
          "135039.781000",
          "135042.281000",
          "135045.281000",
          "135047.781000",
          "135050.281000",
          "135052.781000",
          "135055.281000",
          "135058.281000",
          "135100.781000",
          "135103.281000",
          "135105.781000",
          "135108.281000",
          "135111.281000",
          "135113.781000",
          "135116.281000",
          "135118.781000",
          "135121.281000",
          "135124.281000",
          "135126.781000",
          "135129.281000",
          "135131.781000",
          "135134.281000",
          "135137.281000",
          "135139.781000",
          "135142.281000",
          "135144.781000",
          "135147.281000",
          "135150.281000",
          "135152.781000",
          "135155.281000",
          "135157.781000",
          "135200.281000",
          "135203.281000",
          "135205.781000",
          "135208.281000",
          "135210.781000",
          "135213.281000",
          "135216.281000",
          "135218.781000",
          "135221.281000",
          "135223.781000",
          "135226.281000",
          "135229.281000",
          "135231.781000",
          "135234.281000",
          "135236.781000",
          "135239.281000",
          "135242.281000",
          "135244.781000",
          "135247.281000",
          "135249.781000",
          "135252.281000",
          "135255.281000",
          "135257.781000",
          "135300.281000",
          "135302.781000",
          "135305.281000",
          "135308.281000",
          "135310.781000",
          "135313.281000",
          "135315.781000",
          "135318.281000",
          "135321.281000",
          "135323.781000",
          "135326.281000",
          "135328.781000",
          "135331.281000",
          "135334.281000",
          "135336.781000",
          "135339.281000",
          "135341.781000",
          "135344.281000",
          "135347.281000",
          "135349.781000",
          "135352.281000",
          "135354.781000",
          "135357.281000",
          "135400.281000",
          "135402.781000",
          "135405.281000",
          "135407.781000",
          "135410.281000",
          "135413.281000",
          "135415.781000",
          "135418.281000",
          "135425.593000"
        ],
        "InstanceCreationTime": [
          "134758.296000",
          "134758.296000",
          "134759.281000",
          "134801.281000",
          "134803.781000",
          "134806.281000",
          "134809.281000",
          "134811.781000",
          "134814.281000",
          "134816.781000",
          "134819.281000",
          "134822.281000",
          "134824.781000",
          "134827.281000",
          "134829.781000",
          "134832.281000",
          "134835.281000",
          "134837.781000",
          "134840.281000",
          "134842.781000",
          "134845.281000",
          "134848.281000",
          "134850.781000",
          "134853.281000",
          "134855.781000",
          "134858.281000",
          "134901.281000",
          "134903.781000",
          "134906.281000",
          "134908.781000",
          "134911.281000",
          "134914.281000",
          "134916.781000",
          "134919.281000",
          "134921.781000",
          "134924.281000",
          "134927.281000",
          "134929.781000",
          "134932.281000",
          "134934.781000",
          "134937.281000",
          "134940.281000",
          "134942.781000",
          "134945.281000",
          "134947.781000",
          "134950.281000",
          "134953.281000",
          "134955.781000",
          "134958.281000",
          "135000.781000",
          "135003.281000",
          "135006.281000",
          "135008.781000",
          "135011.281000",
          "135013.781000",
          "135016.281000",
          "135019.281000",
          "135021.781000",
          "135024.281000",
          "135026.781000",
          "135029.281000",
          "135032.281000",
          "135034.781000",
          "135037.281000",
          "135039.781000",
          "135042.281000",
          "135045.281000",
          "135047.781000",
          "135050.281000",
          "135052.781000",
          "135055.281000",
          "135058.281000",
          "135100.781000",
          "135103.281000",
          "135105.781000",
          "135108.281000",
          "135111.281000",
          "135113.781000",
          "135116.281000",
          "135118.781000",
          "135121.281000",
          "135124.281000",
          "135126.781000",
          "135129.281000",
          "135131.781000",
          "135134.281000",
          "135137.281000",
          "135139.781000",
          "135142.281000",
          "135144.781000",
          "135147.281000",
          "135150.281000",
          "135152.781000",
          "135155.281000",
          "135157.781000",
          "135200.281000",
          "135203.281000",
          "135205.781000",
          "135208.281000",
          "135210.781000",
          "135213.281000",
          "135216.281000",
          "135218.781000",
          "135221.281000",
          "135223.781000",
          "135226.281000",
          "135229.281000",
          "135231.781000",
          "135234.281000",
          "135236.781000",
          "135239.281000",
          "135242.281000",
          "135244.781000",
          "135247.281000",
          "135249.781000",
          "135252.281000",
          "135255.281000",
          "135257.781000",
          "135300.281000",
          "135302.781000",
          "135305.281000",
          "135308.281000",
          "135310.781000",
          "135313.281000",
          "135315.781000",
          "135318.281000",
          "135321.281000",
          "135323.781000",
          "135326.281000",
          "135328.781000",
          "135331.281000",
          "135334.281000",
          "135336.781000",
          "135339.281000",
          "135341.781000",
          "135344.281000",
          "135347.281000",
          "135349.781000",
          "135352.281000",
          "135354.781000",
          "135357.281000",
          "135400.281000",
          "135402.781000",
          "135405.281000",
          "135407.781000",
          "135410.281000",
          "135413.281000",
          "135415.781000",
          "135418.281000",
          "135425.593000"
        ],
        "InstanceNumber": [
          1,
          2,
          3,
          4,
          5,
          6,
          7,
          8,
          9,
          10,
          11,
          12,
          13,
          14,
          15,
          16,
          17,
          18,
          19,
          20,
          21,
          22,
          23,
          24,
          25,
          26,
          27,
          28,
          29,
          30,
          31,
          32,
          33,
          34,
          35,
          36,
          37,
          38,
          39,
          40,
          41,
          42,
          43,
          44,
          45,
          46,
          47,
          48,
          49,
          50,
          51,
          52,
          53,
          54,
          55,
          56,
          57,
          58,
          59,
          60,
          61,
          62,
          63,
          64,
          65,
          66,
          67,
          68,
          69,
          70,
          71,
          72,
          73,
          74,
          75,
          76,
          77,
          78,
          79,
          80,
          81,
          82,
          83,
          84,
          85,
          86,
          87,
          88,
          89,
          90,
          91,
          92,
          93,
          94,
          95,
          96,
          97,
          98,
          99,
          100,
          101,
          102,
          103,
          104,
          105,
          106,
          107,
          108,
          109,
          110,
          111,
          112,
          113,
          114,
          115,
          116,
          117,
          118,
          119,
          120,
          121,
          122,
          123,
          124,
          125,
          126,
          127,
          128,
          129,
          130,
          131,
          132,
          133,
          134,
          135,
          136,
          137,
          138,
          139,
          140,
          141,
          142,
          143,
          144,
          145,
          146,
          147,
          148,
          149,
          150
        ],
        "WindowCenter": [
          963.0,
          963.0,
          963.0,
          962.0,
          962.0,
          962.0,
          962.0,
          962.0,
          961.0,
          961.0,
          960.0,
          960.0,
          960.0,
          959.0,
          959.0,
          959.0,
          959.0,
          959.0,
          958.0,
          959.0,
          959.0,
          959.0,
          958.0,
          959.0,
          959.0,
          958.0,
          959.0,
          962.0,
          959.0,
          958.0,
          959.0,
          960.0,
          960.0,
          962.0,
          958.0,
          957.0,
          958.0,
          958.0,
          959.0,
          956.0,
          959.0,
          959.0,
          957.0,
          959.0,
          959.0,
          960.0,
          959.0,
          958.0,
          959.0,
          961.0,
          960.0,
          958.0,
          957.0,
          958.0,
          959.0,
          956.0,
          957.0,
          959.0,
          959.0,
          959.0,
          959.0,
          958.0,
          958.0,
          958.0,
          957.0,
          957.0,
          957.0,
          960.0,
          960.0,
          959.0,
          957.0,
          958.0,
          958.0,
          957.0,
          958.0,
          959.0,
          957.0,
          957.0,
          957.0,
          958.0,
          960.0,
          960.0,
          957.0,
          959.0,
          959.0,
          958.0,
          960.0,
          960.0,
          959.0,
          959.0,
          959.0,
          960.0,
          960.0,
          960.0,
          959.0,
          959.0,
          959.0,
          958.0,
          959.0,
          960.0,
          959.0,
          960.0,
          959.0,
          959.0,
          959.0,
          961.0,
          961.0,
          960.0,
          961.0,
          960.0,
          958.0,
          960.0,
          958.0,
          958.0,
          961.0,
          960.0,
          959.0,
          960.0,
          959.0,
          960.0,
          959.0,
          959.0,
          960.0,
          960.0,
          960.0,
          960.0,
          961.0,
          958.0,
          959.0,
          960.0,
          960.0,
          960.0,
          959.0,
          960.0,
          960.0,
          958.0,
          957.0,
          958.0,
          959.0,
          959.0,
          959.0,
          961.0,
          957.0,
          959.0,
          960.0,
          959.0,
          960.0,
          960.0,
          957.0,
          957.0
        ],
        "WindowWidth": [
          2221.0,
          2220.0,
          2222.0,
          2220.0,
          2221.0,
          2219.0,
          2219.0,
          2219.0,
          2216.0,
          2216.0,
          2213.0,
          2212.0,
          2213.0,
          2210.0,
          2211.0,
          2212.0,
          2211.0,
          2210.0,
          2208.0,
          2211.0,
          2212.0,
          2212.0,
          2207.0,
          2210.0,
          2210.0,
          2207.0,
          2214.0,
          2221.0,
          2210.0,
          2210.0,
          2213.0,
          2215.0,
          2215.0,
          2220.0,
          2208.0,
          2206.0,
          2210.0,
          2210.0,
          2213.0,
          2204.0,
          2213.0,
          2212.0,
          2207.0,
          2213.0,
          2213.0,
          2216.0,
          2212.0,
          2212.0,
          2212.0,
          2218.0,
          2216.0,
          2208.0,
          2208.0,
          2210.0,
          2212.0,
          2203.0,
          2207.0,
          2212.0,
          2212.0,
          2213.0,
          2211.0,
          2210.0,
          2211.0,
          2207.0,
          2205.0,
          2206.0,
          2206.0,
          2215.0,
          2215.0,
          2212.0,
          2208.0,
          2208.0,
          2210.0,
          2207.0,
          2209.0,
          2212.0,
          2206.0,
          2207.0,
          2207.0,
          2211.0,
          2215.0,
          2214.0,
          2208.0,
          2214.0,
          2213.0,
          2211.0,
          2215.0,
          2216.0,
          2214.0,
          2211.0,
          2212.0,
          2217.0,
          2216.0,
          2214.0,
          2212.0,
          2214.0,
          2211.0,
          2211.0,
          2213.0,
          2215.0,
          2212.0,
          2218.0,
          2213.0,
          2213.0,
          2214.0,
          2218.0,
          2218.0,
          2218.0,
          2218.0,
          2215.0,
          2211.0,
          2216.0,
          2210.0,
          2212.0,
          2219.0,
          2216.0,
          2215.0,
          2216.0,
          2214.0,
          2218.0,
          2214.0,
          2214.0,
          2216.0,
          2218.0,
          2218.0,
          2216.0,
          2218.0,
          2212.0,
          2214.0,
          2218.0,
          2216.0,
          2215.0,
          2214.0,
          2215.0,
          2215.0,
          2211.0,
          2208.0,
          2210.0,
          2213.0,
          2214.0,
          2214.0,
          2220.0,
          2208.0,
          2215.0,
          2215.0,
          2214.0,
          2218.0,
          2215.0,
          2208.0,
          2208.0
        ]
      },
      "slices": {}
    }
  },
  "dummy_trs": 0,
  "dvars_nstd": 78.9201761538926,
  "dvars_std": 1.0775620882550327,
  "dvars_vstd": 1.0351330505369136,
  "efc": 0.5809864777817243,
  "fber": 226.16490173339844,
  "fd_mean": 0.10334474552055069,
  "fd_num": 7,
  "fd_perc": 4.666666666666667,
  "fwhm_avg": 3.0991468877860755,
  "fwhm_x": 3.05118510852694,
  "fwhm_y": 2.912055988432264,
  "fwhm_z": 3.3341995663990236,
  "gcor": 0.00210326,
  "gsr_x": 0.02544018253684044,
  "gsr_y": 0.04443570226430893,
  "provenance": {
    "md5sum": "70b30bbad661716cb651d0a4c94e91fc",
    "settings": {
      "fd_thres": 0.2,
      "testing": false
    },
    "software": "mriqc",
    "version": "23.0.1",
    "webapi_port": null,
    "webapi_url": "https://mriqc.nimh.nih.gov/api/v1"
  },
  "size_t": 150,
  "size_x": 188,
  "size_y": 188,
  "size_z": 46,
  "snr": 1.8741639526172098,
  "spacing_tr": 2.5999999046325684,
  "spacing_x": 1.0957447290420532,
  "spacing_y": 1.0957447290420532,
  "spacing_z": 1.1000001430511475,
  "summary_bg_k": 43.7226061055934,
  "summary_bg_mad": 42.24428275684489,
  "summary_bg_mean": 119.53414916992188,
  "summary_bg_median": 67.26000213623047,
  "summary_bg_n": 1019683.0,
  "summary_bg_p05": 32.97999954223633,
  "summary_bg_p95": 364.6860107421869,
