{
  "aor": 0.0008963333333333334,
  "aqi": 0.014637635333333334,
  "bids_meta": {
    "AcquisitionMatrixPE": 188,
    "AcquisitionNumber": 1,
    "AcquisitionTime": "12:42:3.080000",
    "BandwidthPerPixelPhaseEncode": 19.46,
    "BaseResolution": 188,
    "CogAtlasID": "TODO",
    "ConversionSoftware": "dcm2niix",
    "ConversionSoftwareVersion": "v1.0.20180606 GCC4.8.5",
    "DelayTime": 1.2,
    "DerivedVendorReportedEchoSpacing": 0.000820013,
    "DeviceSerialNumber": "18930",
    "DwellTime": 1.9e-06,
    "EchoTime": 0.02,
    "EffectiveEchoSpacing": 0.000273338,
    "FlipAngle": 80,
    "ImageComments": "Unaliased_MB2_PE2",
    "ImageOrientationPatientDICOM": [
      0.999741,
      0.00599017,
      -0.0219662,
      -0.02273,
      0.206652,
      -0.978151
    ],
    "ImageType": [
      "ORIGINAL",
      "PRIMARY",
      "M",
      "MB",
      "ND",
      "MOSAIC"
    ],
    "InPlanePhaseEncodingDirectionDICOM": "COL",
    "InstitutionAddress": "Oxfordlaan_55_Maastricht_22AAA2_Limburg_NL_6229_EV",
    "InstitutionName": "Scannexus",
    "InstitutionalDepartmentName": "MRI_7T",
    "MRAcquisitionType": "2D",
    "MagneticFieldStrength": 6.98,
    "Manufacturer": "Siemens",
    "ManufacturersModelName": "Investigational_Device_7T",
    "Modality": "MR",
    "MultibandAccelerationFactor": 2,
    "ParallelReductionFactorInPlane": 3,
    "PartialFourier": 0.75,
    "PatientPosition": "HFS",
    "PercentPhaseFOV": 100,
    "PhaseEncodingDirection": "j",
    "PhaseEncodingSteps": 141,
    "PhaseResolution": 1,
    "PixelBandwidth": 1400,
    "ProcedureStepDescription": "FeDem_Faruk",
    "ProtocolName": "cmrr_mbep2d_bold_AP_run4",
    "PulseSequenceDetails": "%CustomerSeq%_cmrr_mbep2d_bold",
    "ReceiveCoilName": "32Ch_Head_7T",
    "ReconMatrixPE": 188,
    "RepetitionTime": 2.6,
    "SAR": 0.0569406,
    "ScanOptions": "PFP_FS",
    "ScanningSequence": "EP",
    "SequenceName": "epfid2d1_188",
    "SequenceVariant": "SK_SS",
    "SeriesDescription": "cmrr_mbep2d_bold_AP_run4",
    "SeriesNumber": 13,
    "ShimSetting": [
      69,
      -183,
      563,
      479,
      -100,
      -27,
      -134,
      84
    ],
    "SliceThickness": 1.1,
    "SliceTiming": [
      0,
      0.735,
      0.0625,
      0.795,
      0.1225,
      0.855,
      0.185,
      0.9175,
      0.245,
      0.9775,
      0.305,
      1.04,
      0.3675,
      1.1,
      0.4275,
      1.1625,
      0.49,
      1.2225,
      0.55,
      1.285,
      0.6125,
      1.345,
      0.6725,
      0,
      0.735,
      0.0625,
      0.795,
      0.1225,
      0.855,
      0.185,
      0.9175,
      0.245,
      0.9775,
      0.305,
      1.04,
      0.3675,
      1.1,
      0.4275,
      1.1625,
      0.49,
      1.2225,
      0.55,
      1.285,
      0.6125,
      1.345,
      0.6725
    ],
    "SoftwareVersions": "syngo_MR_B17",
    "SpacingBetweenSlices": 1.1,
    "StationName": "MRC18930",
    "TaskName": "auditory",
    "TotalReadoutTime": 0.0511141,
    "TxRefAmp": 220,
    "dataset": "ds001942",
    "dcmmeta_affine": [
      [
        -1.0954606533050537,
        -0.024906285107135773,
        0.0014519349206238985,
        102.12840270996094
      ],
      [
        -0.006563697941601276,
        0.22643741965293884,
        -1.0762360095977783,
        23.699573516845703
      ],
      [
        -0.02406933158636093,
        1.071803331375122,
        0.22740764915943146,
        -113.40309143066406
      ],
      [
        0.0,
        0.0,
        0.0,
        1.0
      ]
    ],
    "dcmmeta_reorient_transform": [
      [
        0.0,
        -1.0,
        0.0,
        187.0
      ],
      [
        1.0,
        0.0,
        0.0,
        0.0
      ],
      [
        0.0,
        0.0,
        1.0,
        0.0
      ],
      [
        0.0,
        0.0,
        0.0,
        1.0
      ]
    ],
    "dcmmeta_shape": [
      188,
      188,
      46,
      150
    ],
    "dcmmeta_slice_dim": 2,
    "dcmmeta_version": 0.6,
    "global": {
      "const": {
        "AcquisitionMatrix": [
          188,
          0,
          0,
          188
        ],
        "AngioFlag": "N",
        "BitsAllocated": 16,
        "BitsStored": 12,
        "Columns": 1316,
        "EchoNumbers": 1,
        "EchoTime": 20.0,
        "EchoTrainLength": 1,
        "FlipAngle": 80.0,
        "HighBit": 11,
        "ImageOrientationPatient": [
          0.99974076866955,
          0.00599017065832,
          -0.0219661857296,
          -0.0227300069613,
          0.20665161924358,
          -0.9781505278062
        ],
        "ImagePositionPatient": [
          -701.26360586144,
          -197.45600313121,
          705.09628048503
        ],
        "ImageType": [
          "ORIGINAL",
          "PRIMARY",
          "M",
          "MB",
          "ND",
          "MOSAIC"
        ],
        "ImagedNucleus": "1H",
        "ImagingFrequency": 297.205553,
        "InPlanePhaseEncodingDirection": "COL",
        "LargestImagePixelValue": 4095,
        "MRAcquisitionType": "2D",
        "MagneticFieldStrength": 6.98,
        "Manufacturer": "SIEMENS",
        "ManufacturerModelName": "Investigational_Device_7T",
        "Modality": "MR",
        "NumberOfAverages": 1.0,
        "NumberOfPhaseEncodingSteps": 141,
        "PercentPhaseFieldOfView": 100.0,
        "PercentSampling": 100.0,
        "PerformedProcedureStepStartTime": "115234.593000",
        "PhotometricInterpretation": "MONOCHROME2",
        "PixelBandwidth": 1400.0,
        "PixelRepresentation": 0,
        "PixelSpacing": [
          1.0957447290421,
          1.0957447290421
        ],
        "ProtocolName": "cmrr_mbep2d_bold_AP_run4",
        "RepetitionTime": 2600.0,
        "Rows": 1316,
        "SAR": 0.05694062452119,
        "SamplesPerPixel": 1,
        "ScanOptions": [
          "PFP",
          "FS"
        ],
        "ScanningSequence": "EP",
        "SequenceName": "epfid2d1_188",
        "SequenceVariant": [
          "SK",
          "SS"
        ],
        "SeriesDescription": "cmrr_mbep2d_bold_AP_run4",
        "SeriesNumber": 13,
        "SeriesTime": "124212.890000",
        "SliceLocation": -46.497067814841,
        "SliceThickness": 1.1000000238419,
        "SmallestImagePixelValue": 0,
        "SoftwareVersions": "syngo MR B17",
        "SpacingBetweenSlices": 1.1000001137539,
        "SpecificCharacterSet": "ISO_IR 100",
        "StudyID": "1",
        "StudyTime": "115234.359000",
        "TransmitCoilName": "32Ch_Head_7T",
        "VariableFlipAngleFlag": "N",
        "WindowCenterWidthExplanation": "Algo1",
        "dBdt": 0.0
      },
      "slices": {}
    },
    "modality": "bold",
    "run_id": 4,
    "session_id": "SES03",
    "subject_id": "S05",
    "task_id": "auditory",
    "time": {
      "samples": {
        "AcquisitionNumber": [
          1,
          2,
          3,
          4,
          5,
          6,
          7,
          8,
          9,
          10,
          11,
          12,
          13,
          14,
          15,
          16,
          17,
          18,
          19,
          20,
          21,
          22,
          23,
          24,
          25,
          26,
          27,
          28,
          29,
          30,
          31,
          32,
          33,
          34,
          35,
          36,
          37,
          38,
          39,
          40,
          41,
          42,
          43,
          44,
          45,
          46,
          47,
          48,
          49,
          50,
          51,
          52,
          53,
          54,
          55,
          56,
          57,
          58,
          59,
          60,
          61,
          62,
          63,
          64,
          65,
          66,
          67,
          68,
          69,
          70,
          71,
          72,
          73,
          74,
          75,
          76,
          77,
          78,
          79,
          80,
          81,
          82,
          83,
          84,
          85,
          86,
          87,
          88,
          89,
          90,
          91,
          92,
          93,
          94,
          95,
          96,
          97,
          98,
          99,
          100,
          101,
          102,
          103,
          104,
          105,
          106,
          107,
          108,
          109,
          110,
          111,
          112,
          113,
          114,
          115,
          116,
          117,
          118,
          119,
          120,
          121,
          122,
          123,
          124,
          125,
          126,
          127,
          128,
          129,
          130,
          131,
          132,
          133,
          134,
          135,
          136,
          137,
          138,
          139,
          140,
          141,
          142,
          143,
          144,
          145,
          146,
          147,
          148,
          149,
          150
        ],
        "AcquisitionTime": [
          "124203.080000",
          "124205.690000",
          "124208.302500",
          "124210.912500",
          "124213.522500",
          "124216.132500",
          "124218.742500",
          "124221.352500",
          "124223.965000",
          "124226.575000",
          "124229.185000",
          "124231.795000",
          "124234.405000",
          "124237.017500",
          "124239.627500",
          "124242.237500",
          "124244.847500",
          "124247.457500",
          "124250.067500",
          "124252.680000",
          "124255.290000",
          "124257.900000",
          "124300.510000",
          "124303.120000",
          "124305.730000",
          "124308.342500",
          "124310.952500",
          "124313.562500",
          "124316.172500",
          "124318.782500",
          "124321.395000",
          "124324.005000",
          "124326.615000",
          "124329.225000",
          "124331.835000",
          "124334.445000",
          "124337.057500",
          "124339.667500",
          "124342.277500",
          "124344.887500",
          "124347.497500",
          "124350.107500",
          "124352.720000",
          "124355.330000",
          "124357.940000",
          "124400.550000",
          "124403.160000",
          "124405.772500",
          "124408.382500",
          "124410.992500",
          "124413.602500",
          "124416.212500",
          "124418.822500",
          "124421.435000",
          "124424.045000",
          "124426.655000",
          "124429.265000",
          "124431.875000",
          "124434.485000",
          "124437.097500",
          "124439.707500",
          "124442.317500",
          "124444.927500",
          "124447.537500",
          "124450.150000",
          "124452.760000",
          "124455.370000",
          "124457.980000",
          "124500.590000",
          "124503.200000",
          "124505.812500",
          "124508.422500",
          "124511.032500",
          "124513.642500",
          "124516.252500",
          "124518.862500",
          "124521.475000",
          "124524.085000",
          "124526.695000",
          "124529.305000",
          "124531.915000",
          "124534.527500",
          "124537.137500",
          "124539.747500",
          "124542.357500",
          "124544.967500",
          "124547.577500",
          "124550.190000",
          "124552.800000",
          "124555.410000",
          "124558.020000",
          "124600.630000",
          "124603.240000",
          "124605.852500",
          "124608.462500",
          "124611.072500",
          "124613.682500",
          "124616.292500",
          "124618.905000",
          "124621.515000",
          "124624.125000",
          "124626.735000",
          "124629.345000",
          "124631.955000",
          "124634.567500",
          "124637.177500",
          "124639.787500",
          "124642.397500",
          "124645.007500",
          "124647.617500",
          "124650.230000",
          "124652.840000",
          "124655.450000",
          "124658.060000",
          "124700.670000",
          "124703.282500",
          "124705.892500",
          "124708.502500",
          "124711.112500",
          "124713.722500",
          "124716.332500",
          "124718.945000",
          "124721.555000",
          "124724.165000",
          "124726.775000",
          "124729.385000",
          "124731.995000",
          "124734.607500",
          "124737.217500",
          "124739.827500",
          "124742.437500",
          "124745.047500",
          "124747.660000",
          "124750.270000",
          "124752.880000",
          "124755.490000",
          "124758.100000",
          "124800.710000",
          "124803.322500",
          "124805.932500",
          "124808.542500",
          "124811.152500",
          "124813.762500",
          "124816.372500",
          "124818.985000",
          "124821.595000",
          "124824.205000",
          "124826.815000",
          "124829.425000",
          "124832.037500"
        ],
        "ContentTime": [
          "124212.890000",
          "124213.390000",
          "124214.390000",
          "124216.390000",
          "124218.890000",
          "124221.390000",
          "124223.890000",
          "124226.390000",
          "124229.390000",
          "124231.890000",
          "124234.390000",
          "124236.890000",
          "124239.390000",
          "124242.390000",
          "124244.890000",
          "124247.390000",
          "124249.890000",
          "124252.390000",
          "124255.390000",
          "124257.890000",
          "124300.390000",
          "124302.890000",
          "124305.390000",
          "124308.390000",
          "124310.890000",
          "124313.390000",
          "124315.890000",
          "124318.390000",
          "124321.390000",
          "124323.890000",
          "124326.390000",
          "124328.890000",
          "124331.390000",
          "124334.390000",
          "124336.890000",
          "124339.390000",
          "124341.890000",
          "124344.390000",
          "124347.390000",
          "124349.890000",
          "124352.390000",
          "124354.890000",
          "124357.390000",
          "124400.390000",
          "124402.890000",
          "124405.390000",
          "124407.890000",
          "124410.390000",
          "124413.390000",
          "124415.890000",
          "124418.390000",
          "124420.890000",
          "124423.890000",
          "124426.390000",
          "124428.890000",
          "124431.390000",
          "124433.890000",
          "124436.390000",
          "124439.390000",
          "124441.890000",
          "124444.390000",
          "124446.890000",
          "124449.390000",
          "124452.390000",
          "124454.890000",
          "124457.390000",
          "124459.890000",
          "124502.390000",
          "124505.390000",
          "124507.890000",
          "124510.390000",
          "124512.890000",
          "124515.390000",
          "124518.390000",
          "124520.890000",
          "124523.390000",
          "124525.890000",
          "124528.390000",
          "124531.390000",
          "124533.890000",
          "124536.390000",
          "124538.890000",
          "124541.390000",
          "124544.390000",
          "124546.890000",
          "124549.390000",
          "124551.890000",
          "124554.390000",
          "124557.390000",
          "124559.890000",
          "124602.390000",
          "124604.890000",
          "124607.390000",
          "124610.390000",
          "124612.890000",
          "124615.390000",
          "124617.890000",
          "124620.390000",
          "124623.390000",
          "124625.890000",
          "124628.390000",
          "124630.890000",
          "124633.390000",
          "124636.390000",
          "124638.890000",
          "124641.390000",
          "124643.890000",
          "124646.390000",
          "124649.390000",
          "124651.890000",
          "124654.390000",
          "124656.890000",
          "124659.390000",
          "124702.390000",
          "124704.890000",
          "124707.390000",
          "124709.890000",
          "124712.390000",
          "124715.390000",
          "124717.890000",
          "124720.390000",
          "124722.890000",
          "124725.390000",
          "124728.390000",
          "124730.890000",
          "124733.390000",
          "124735.890000",
          "124738.390000",
          "124741.390000",
          "124743.890000",
          "124746.390000",
          "124748.890000",
          "124751.390000",
          "124754.390000",
          "124756.890000",
          "124759.390000",
          "124801.890000",
          "124804.390000",
          "124807.390000",
          "124809.890000",
          "124812.390000",
          "124814.890000",
          "124817.390000",
          "124820.390000",
          "124822.890000",
          "124825.390000",
          "124827.890000",
          "124830.390000",
          "124833.390000",
          "124840.546000"
        ],
        "InstanceCreationTime": [
          "124212.890000",
          "124213.390000",
          "124214.390000",
          "124216.390000",
          "124218.890000",
          "124221.390000",
          "124223.890000",
          "124226.390000",
          "124229.390000",
          "124231.890000",
          "124234.390000",
          "124236.890000",
          "124239.390000",
          "124242.390000",
          "124244.890000",
          "124247.390000",
          "124249.890000",
          "124252.390000",
          "124255.390000",
          "124257.890000",
          "124300.390000",
          "124302.890000",
          "124305.390000",
          "124308.390000",
          "124310.890000",
          "124313.390000",
          "124315.890000",
          "124318.390000",
          "124321.390000",
          "124323.890000",
          "124326.390000",
          "124328.890000",
          "124331.390000",
          "124334.390000",
          "124336.890000",
          "124339.390000",
          "124341.890000",
          "124344.390000",
          "124347.390000",
          "124349.890000",
          "124352.390000",
          "124354.890000",
          "124357.390000",
          "124400.390000",
          "124402.890000",
          "124405.390000",
          "124407.890000",
          "124410.390000",
          "124413.390000",
          "124415.890000",
          "124418.390000",
          "124420.890000",
          "124423.890000",
          "124426.390000",
          "124428.890000",
          "124431.390000",
          "124433.890000",
          "124436.390000",
          "124439.390000",
          "124441.890000",
          "124444.390000",
          "124446.890000",
          "124449.390000",
          "124452.390000",
          "124454.890000",
          "124457.390000",
          "124459.890000",
          "124502.390000",
          "124505.390000",
          "124507.890000",
          "124510.390000",
          "124512.890000",
          "124515.390000",
          "124518.390000",
          "124520.890000",
          "124523.390000",
          "124525.890000",
          "124528.390000",
          "124531.390000",
          "124533.890000",
          "124536.390000",
          "124538.890000",
          "124541.390000",
          "124544.390000",
          "124546.890000",
          "124549.390000",
          "124551.890000",
          "124554.390000",
          "124557.390000",
          "124559.890000",
          "124602.390000",
          "124604.890000",
          "124607.390000",
          "124610.390000",
          "124612.890000",
          "124615.390000",
          "124617.890000",
          "124620.390000",
          "124623.390000",
          "124625.890000",
          "124628.390000",
          "124630.890000",
          "124633.390000",
          "124636.390000",
          "124638.890000",
          "124641.390000",
          "124643.890000",
          "124646.390000",
          "124649.390000",
          "124651.890000",
          "124654.390000",
          "124656.890000",
          "124659.390000",
          "124702.390000",
          "124704.890000",
          "124707.390000",
          "124709.890000",
          "124712.390000",
          "124715.390000",
          "124717.890000",
          "124720.390000",
          "124722.890000",
          "124725.390000",
          "124728.390000",
          "124730.890000",
          "124733.390000",
          "124735.890000",
          "124738.390000",
          "124741.390000",
          "124743.890000",
          "124746.390000",
          "124748.890000",
          "124751.390000",
          "124754.390000",
          "124756.890000",
          "124759.390000",
          "124801.890000",
          "124804.390000",
          "124807.390000",
          "124809.890000",
          "124812.390000",
          "124814.890000",
          "124817.390000",
          "124820.390000",
          "124822.890000",
          "124825.390000",
          "124827.890000",
          "124830.390000",
          "124833.390000",
          "124840.546000"
        ],
        "InstanceNumber": [
          1,
          2,
          3,
          4,
          5,
          6,
          7,
          8,
          9,
          10,
          11,
          12,
          13,
          14,
          15,
          16,
          17,
          18,
          19,
          20,
          21,
          22,
          23,
          24,
          25,
          26,
          27,
          28,
          29,
          30,
          31,
          32,
          33,
          34,
          35,
          36,
          37,
          38,
          39,
          40,
          41,
          42,
          43,
          44,
          45,
          46,
          47,
          48,
          49,
          50,
          51,
          52,
          53,
          54,
          55,
          56,
          57,
          58,
          59,
          60,
          61,
          62,
          63,
          64,
          65,
          66,
          67,
          68,
          69,
          70,
          71,
          72,
          73,
          74,
          75,
          76,
          77,
          78,
          79,
          80,
          81,
          82,
          83,
          84,
          85,
          86,
          87,
          88,
          89,
          90,
          91,
          92,
          93,
          94,
          95,
          96,
          97,
          98,
          99,
          100,
          101,
          102,
          103,
          104,
          105,
          106,
          107,
          108,
          109,
          110,
          111,
          112,
          113,
          114,
          115,
          116,
          117,
          118,
          119,
          120,
          121,
          122,
          123,
          124,
          125,
          126,
          127,
          128,
          129,
          130,
          131,
          132,
          133,
          134,
          135,
          136,
          137,
          138,
          139,
          140,
          141,
          142,
          143,
          144,
          145,
          146,
          147,
          148,
          149,
          150
        ],
        "WindowCenter": [
          965.0,
          963.0,
          964.0,
          965.0,
          963.0,
          964.0,
          967.0,
          965.0,
          962.0,
          964.0,
          964.0,
          962.0,
          962.0,
          961.0,
          962.0,
          964.0,
          964.0,
          965.0,
          966.0,
          965.0,
          965.0,
          965.0,
          966.0,
          965.0,
          963.0,
          965.0,
          964.0,
          963.0,
          965.0,
          965.0,
          963.0,
          962.0,
          964.0,
          965.0,
          963.0,
          963.0,
          963.0,
          962.0,
          963.0,
          963.0,
          963.0,
          965.0,
          967.0,
          964.0,
          965.0,
          965.0,
          966.0,
          965.0,
          963.0,
          961.0,
          961.0,
          962.0,
          965.0,
          966.0,
          964.0,
          960.0,
          961.0,
          964.0,
          968.0,
          965.0,
          963.0,
          962.0,
          963.0,
          963.0,
          965.0,
          963.0,
          963.0,
          964.0,
          964.0,
          966.0,
          966.0,
          964.0,
          964.0,
          965.0,
          965.0,
          966.0,
          966.0,
          964.0,
          965.0,
          968.0,
          963.0,
          960.0,
          960.0,
          960.0,
          961.0,
          963.0,
          964.0,
          964.0,
          963.0,
          962.0,
          965.0,
          967.0,
          963.0,
          960.0,
          959.0,
          961.0,
          959.0,
          959.0,
          965.0,
          963.0,
          962.0,
          963.0,
          962.0,
          963.0,
          965.0,
          964.0,
          961.0,
          962.0,
          965.0,
          962.0,
          960.0,
          960.0,
          961.0,
          962.0,
          962.0,
          963.0,
          963.0,
          963.0,
          962.0,
          963.0,
          967.0,
          964.0,
          959.0,
          959.0,
          961.0,
          962.0,
          964.0,
          963.0,
          964.0,
          963.0,
          959.0,
          958.0,
          959.0,
          961.0,
          960.0,
          960.0,
          961.0,
          961.0,
          963.0,
          962.0,
          961.0,
          960.0,
          961.0,
          960.0,
          960.0,
          960.0,
          958.0,
          959.0,
          961.0,
          959.0
        ],
        "WindowWidth": [
          2226.0,
          2220.0,
          2225.0,
          2224.0,
          2220.0,
          2226.0,
          2234.0,
          2226.0,
          2216.0,
          2224.0,
          2223.0,
          2217.0,
          2217.0,
          2214.0,
          2216.0,
          2222.0,
          2224.0,
          2227.0,
          2229.0,
          2224.0,
          2227.0,
          2227.0,
          2228.0,
          2226.0,
          2220.0,
          2227.0,
          2221.0,
          2221.0,
          2226.0,
          2225.0,
          2220.0,
          2217.0,
          2224.0,
          2228.0,
          2221.0,
          2219.0,
          2218.0,
          2217.0,
          2222.0,
          2220.0,
          2221.0,
          2230.0,
          2232.0,
          2224.0,
          2226.0,
          2225.0,
          2230.0,
          2227.0,
          2218.0,
          2213.0,
          2214.0,
          2220.0,
          2227.0,
          2228.0,
          2222.0,
          2211.0,
          2216.0,
          2224.0,
          2235.0,
          2224.0,
          2219.0,
          2216.0,
          2221.0,
          2222.0,
          2228.0,
          2219.0,
          2221.0,
          2223.0,
          2226.0,
          2230.0,
          2229.0,
          2223.0,
          2223.0,
          2225.0,
          2226.0,
          2230.0,
          2228.0,
          2226.0,
          2229.0,
          2234.0,
          2218.0,
          2211.0,
          2213.0,
          2213.0,
          2217.0,
          2221.0,
          2223.0,
          2225.0,
          2221.0,
          2220.0,
          2230.0,
          2233.0,
          2218.0,
          2211.0,
          2209.0,
          2216.0,
          2209.0,
          2211.0,
          2227.0,
          2221.0,
          2218.0,
          2219.0,
          2217.0,
          2224.0,
          2228.0,
          2222.0,
          2214.0,
          2221.0,
          2227.0,
          2217.0,
          2210.0,
          2213.0,
          2216.0,
          2219.0,
          2220.0,
          2223.0,
          2223.0,
          2220.0,
          2220.0,
          2222.0,
          2233.0,
          2224.0,
          2209.0,
          2209.0,
          2214.0,
          2218.0,
          2225.0,
          2224.0,
          2226.0,
          2220.0,
          2209.0,
          2205.0,
          2208.0,
          2217.0,
          2212.0,
          2214.0,
          2218.0,
          2215.0,
          2222.0,
          2217.0,
          2216.0,
          2214.0,
          2215.0,
          2213.0,
          2213.0,
          2213.0,
          2208.0,
          2212.0,
          2215.0,
          2208.0
        ]
      },
      "slices": {}
    }
  },
  "dummy_trs": 0,
  "dvars_nstd": 83.10215636389263,
  "dvars_std": 1.1096794301342288,
  "dvars_vstd": 1.0332932034899331,
  "efc": 0.583198844616668,
  "fber": 221.78579711914062,
  "fd_mean": 0.10538055525181853,
  "fd_num": 8,
  "fd_perc": 5.333333333333333,
  "fwhm_avg": 3.114816141604212,
  "fwhm_x": 3.0482190892399106,
  "fwhm_y": 2.921729774414577,
  "fwhm_z": 3.3744995611581503,
  "gcor": 0.00561257,
  "gsr_x": 0.026204759255051613,
  "gsr_y": 0.046071261167526245,
  "provenance": {
    "md5sum": "ba3f606cc899b6c6292dc40563ed5684",
    "settings": {
      "fd_thres": 0.2,
      "testing": false
    },
    "software": "mriqc",
    "version": "22.0.6",
    "webapi_port": null,
    "webapi_url": "https://mriqc.nimh.nih.gov/api/v1"
  },
  "size_t": 150,
  "size_x": 188,
  "size_y": 188,
  "size_z": 46,
  "snr": 1.8822356859828395,
  "spacing_tr": 2.5999999046325684,
  "spacing_x": 1.0957447290420532,
  "spacing_y": 1.0957447290420532,
  "spacing_z": 1.1000001430511475,
  "summary_bg_k": 46.03224662658584,
  "summary_bg_mad": 42.970754676732604,
  "summary_bg_mean": 122.01244354248047,
  "summary_bg_median": 67.90333557128906,
  "summary_bg_n": 1016910.0,
  "summary_bg_p05": 33.12666702270508,
