{
  "aor": 0.0006155999999999999,
  "aqi": 0.012884389333333331,
  "bids_meta": {
    "AcquisitionMatrixPE": 188,
    "AcquisitionNumber": 1,
    "AcquisitionTime": "15:48:7.212500",
    "BandwidthPerPixelPhaseEncode": 19.46,
    "BaseResolution": 188,
    "ConversionSoftware": "dcm2niix",
    "ConversionSoftwareVersion": "v1.0.20180606 GCC4.8.5",
    "DelayTime": 1.2,
    "DerivedVendorReportedEchoSpacing": 0.000820013,
    "DeviceSerialNumber": "18930",
    "DwellTime": 1.9e-06,
    "EchoTime": 0.02,
    "EffectiveEchoSpacing": 0.000273338,
    "FlipAngle": 80,
    "ImageComments": "Unaliased_MB2_PE2",
    "ImageOrientationPatientDICOM": [
      0.997694,
      0.0552999,
      -0.0393616,
      -0.0469247,
      0.142908,
      -0.988623
    ],
    "ImageType": [
      "ORIGINAL",
      "PRIMARY",
      "M",
      "MB",
      "ND",
      "MOSAIC"
    ],
    "InPlanePhaseEncodingDirectionDICOM": "COL",
    "InstitutionAddress": "Oxfordlaan_55_Maastricht_753AAF_Limburg_NL_6229_EV",
    "InstitutionName": "Scannexus",
    "InstitutionalDepartmentName": "MRI_7T",
    "MRAcquisitionType": "2D",
    "MagneticFieldStrength": 6.98,
    "Manufacturer": "Siemens",
    "ManufacturersModelName": "Investigational_Device_7T",
    "Modality": "MR",
    "MultibandAccelerationFactor": 2,
    "ParallelReductionFactorInPlane": 3,
    "PartialFourier": 0.75,
    "PatientPosition": "HFS",
    "PercentPhaseFOV": 100,
    "PhaseEncodingDirection": "j",
    "PhaseEncodingSteps": 141,
    "PhaseResolution": 1,
    "PixelBandwidth": 1400,
    "ProcedureStepDescription": "FeDem_Faruk",
    "ProtocolName": "cmrr_mbep2d_bold_AP_run8",
    "PulseSequenceDetails": "%CustomerSeq%_cmrr_mbep2d_bold",
    "ReceiveCoilName": "32Ch_Head_7T",
    "ReconMatrixPE": 188,
    "RepetitionTime": 2.6,
    "SAR": 0.0584473,
    "ScanOptions": "PFP_FS",
    "ScanningSequence": "EP",
    "SequenceName": "epfid2d1_188",
    "SequenceVariant": "SK_SS",
    "SeriesDescription": "cmrr_mbep2d_bold_AP_run8",
    "SeriesNumber": 21,
    "ShimSetting": [
      74,
      22,
      526,
      331,
      -94,
      30,
      178,
      188
    ],
    "SliceThickness": 1.1,
    "SliceTiming": [
      0,
      0.7325,
      0.06,
      0.7925,
      0.12,
      0.855,
      0.1825,
      0.915,
      0.2425,
      0.9775,
      0.305,
      1.0375,
      0.365,
      1.1,
      0.4275,
      1.16,
      0.4875,
      1.22,
      0.55,
      1.2825,
      0.61,
      1.3425,
      0.67,
      0,
      0.7325,
      0.06,
      0.7925,
      0.12,
      0.855,
      0.1825,
      0.915,
      0.2425,
      0.9775,
      0.305,
      1.0375,
      0.365,
      1.1,
      0.4275,
      1.16,
      0.4875,
      1.22,
      0.55,
      1.2825,
      0.61,
      1.3425,
      0.67
    ],
    "SoftwareVersions": "syngo_MR_B17",
    "SpacingBetweenSlices": 1.1,
    "StationName": "MRC18930",
    "TaskName": "auditory",
    "TotalReadoutTime": 0.0511141,
    "TxRefAmp": 210,
    "dataset": "ds001942",
    "dcmmeta_affine": [
      [
        -1.0932174921035767,
        -0.051417529582977295,
        0.053950224071741104,
        101.08625793457031
      ],
      [
        -0.06059454008936882,
        0.1565903127193451,
        -1.0870089530944824,
        41.250267028808594
      ],
      [
        -0.043130211532115936,
        1.0832784175872803,
        0.15969029068946838,
        -112.83697509765625
      ],
      [
        0.0,
        0.0,
        0.0,
        1.0
      ]
    ],
    "dcmmeta_reorient_transform": [
      [
        0.0,
        -1.0,
        0.0,
        187.0
      ],
      [
        1.0,
        0.0,
        0.0,
        0.0
      ],
      [
        0.0,
        0.0,
        1.0,
        0.0
      ],
      [
        0.0,
        0.0,
        0.0,
        1.0
      ]
    ],
    "dcmmeta_shape": [
      188,
      188,
      46,
      150
    ],
    "dcmmeta_slice_dim": 2,
    "dcmmeta_version": 0.6,
    "global": {
      "const": {
        "AcquisitionMatrix": [
          188,
          0,
          0,
          188
        ],
        "AngioFlag": "N",
        "BitsAllocated": 16,
        "BitsStored": 12,
        "Columns": 1316,
        "EchoNumbers": 1,
        "EchoTime": 20.0,
        "EchoTrainLength": 1,
        "FlipAngle": 80.0,
        "HighBit": 11,
        "ImageOrientationPatient": [
          0.99769363669209,
          0.05529987056619,
          -0.0393615500135,
          -0.0469247344932,
          0.14290765139171,
          -0.9886230183778
        ],
        "ImagePositionPatient": [
          -679.04638794689,
          -193.02490866948,
          725.0305860642
        ],
        "ImageType": [
          "ORIGINAL",
          "PRIMARY",
          "M",
          "MB",
          "ND",
          "MOSAIC"
        ],
        "ImagedNucleus": "1H",
        "ImagingFrequency": 297.205647,
        "InPlanePhaseEncodingDirection": "COL",
        "LargestImagePixelValue": 4095,
        "MRAcquisitionType": "2D",
        "MagneticFieldStrength": 6.98,
        "Manufacturer": "SIEMENS",
        "ManufacturerModelName": "Investigational_Device_7T",
        "Modality": "MR",
        "NumberOfAverages": 1.0,
        "NumberOfPhaseEncodingSteps": 141,
        "PercentPhaseFieldOfView": 100.0,
        "PercentSampling": 100.0,
        "PerformedProcedureStepStartTime": "142439.593000",
        "PhotometricInterpretation": "MONOCHROME2",
        "PixelBandwidth": 1400.0,
        "PixelRepresentation": 0,
        "PixelSpacing": [
          1.0957447290421,
          1.0957447290421
        ],
        "ProtocolName": "cmrr_mbep2d_bold_AP_run8",
        "RepetitionTime": 2600.0,
        "Rows": 1316,
        "SAR": 0.05844730245231,
        "SamplesPerPixel": 1,
        "ScanOptions": [
          "PFP",
          "FS"
        ],
        "ScanningSequence": "EP",
        "SequenceName": "epfid2d1_188",
        "SequenceVariant": [
          "SK",
          "SS"
        ],
        "SeriesDescription": "cmrr_mbep2d_bold_AP_run8",
        "SeriesNumber": 21,
        "SeriesTime": "154816.843000",
        "SliceLocation": -52.186137634346,
        "SliceThickness": 1.1000000238419,
        "SmallestImagePixelValue": 0,
        "SoftwareVersions": "syngo MR B17",
        "SpacingBetweenSlices": 1.1000000019064,
        "SpecificCharacterSet": "ISO_IR 100",
        "StudyID": "1",
        "StudyTime": "142439.546000",
        "TransmitCoilName": "32Ch_Head_7T",
        "VariableFlipAngleFlag": "N",
        "WindowCenterWidthExplanation": "Algo1",
        "dBdt": 0.0
      },
      "slices": {}
    },
    "modality": "bold",
    "run_id": 8,
    "session_id": "SES03",
    "subject_id": "S07",
    "task_id": "auditory",
    "time": {
      "samples": {
        "AcquisitionNumber": [
          1,
          2,
          3,
          4,
          5,
          6,
          7,
          8,
          9,
          10,
          11,
          12,
          13,
          14,
          15,
          16,
          17,
          18,
          19,
          20,
          21,
          22,
          23,
          24,
          25,
          26,
          27,
          28,
          29,
          30,
          31,
          32,
          33,
          34,
          35,
          36,
          37,
          38,
          39,
          40,
          41,
          42,
          43,
          44,
          45,
          46,
          47,
          48,
          49,
          50,
          51,
          52,
          53,
          54,
          55,
          56,
          57,
          58,
          59,
          60,
          61,
          62,
          63,
          64,
          65,
          66,
          67,
          68,
          69,
          70,
          71,
          72,
          73,
          74,
          75,
          76,
          77,
          78,
          79,
          80,
          81,
          82,
          83,
          84,
          85,
          86,
          87,
          88,
          89,
          90,
          91,
          92,
          93,
          94,
          95,
          96,
          97,
          98,
          99,
          100,
          101,
          102,
          103,
          104,
          105,
          106,
          107,
          108,
          109,
          110,
          111,
          112,
          113,
          114,
          115,
          116,
          117,
          118,
          119,
          120,
          121,
          122,
          123,
          124,
          125,
          126,
          127,
          128,
          129,
          130,
          131,
          132,
          133,
          134,
          135,
          136,
          137,
          138,
          139,
          140,
          141,
          142,
          143,
          144,
          145,
          146,
          147,
          148,
          149,
          150
        ],
        "AcquisitionTime": [
          "154807.212500",
          "154809.822500",
          "154812.432500",
          "154815.042500",
          "154817.652500",
          "154820.262500",
          "154822.875000",
          "154825.485000",
          "154828.095000",
          "154830.705000",
          "154833.315000",
          "154835.927500",
          "154838.537500",
          "154841.147500",
          "154843.757500",
          "154846.367500",
          "154848.977500",
          "154851.590000",
          "154854.200000",
          "154856.810000",
          "154859.420000",
          "154902.030000",
          "154904.640000",
          "154907.252500",
          "154909.862500",
          "154912.472500",
          "154915.082500",
          "154917.692500",
          "154920.305000",
          "154922.915000",
          "154925.525000",
          "154928.135000",
          "154930.745000",
          "154933.355000",
          "154935.967500",
          "154938.577500",
          "154941.187500",
          "154943.797500",
          "154946.407500",
          "154949.017500",
          "154951.630000",
          "154954.240000",
          "154956.850000",
          "154959.460000",
          "155002.070000",
          "155004.682500",
          "155007.292500",
          "155009.902500",
          "155012.512500",
          "155015.122500",
          "155017.732500",
          "155020.345000",
          "155022.955000",
          "155025.565000",
          "155028.175000",
          "155030.785000",
          "155033.395000",
          "155036.007500",
          "155038.617500",
          "155041.227500",
          "155043.837500",
          "155046.447500",
          "155049.060000",
          "155051.670000",
          "155054.280000",
          "155056.890000",
          "155059.500000",
          "155102.110000",
          "155104.722500",
          "155107.332500",
          "155109.942500",
          "155112.552500",
          "155115.162500",
          "155117.772500",
          "155120.385000",
          "155122.995000",
          "155125.605000",
          "155128.215000",
          "155130.825000",
          "155133.437500",
          "155136.047500",
          "155138.657500",
          "155141.267500",
          "155143.877500",
          "155146.487500",
          "155149.100000",
          "155151.710000",
          "155154.320000",
          "155156.930000",
          "155159.540000",
          "155202.150000",
          "155204.762500",
          "155207.372500",
          "155209.982500",
          "155212.592500",
          "155215.202500",
          "155217.815000",
          "155220.425000",
          "155223.035000",
          "155225.645000",
          "155228.255000",
          "155230.865000",
          "155233.477500",
          "155236.087500",
          "155238.697500",
          "155241.307500",
          "155243.917500",
          "155246.527500",
          "155249.140000",
          "155251.750000",
          "155254.360000",
          "155256.970000",
          "155259.580000",
          "155302.192500",
          "155304.802500",
          "155307.412500",
          "155310.022500",
          "155312.632500",
          "155315.242500",
          "155317.855000",
          "155320.465000",
          "155323.075000",
          "155325.685000",
          "155328.295000",
          "155330.905000",
          "155333.517500",
          "155336.127500",
          "155338.737500",
          "155341.347500",
          "155343.957500",
          "155346.570000",
          "155349.180000",
          "155351.790000",
          "155354.400000",
          "155357.010000",
          "155359.620000",
          "155402.232500",
          "155404.842500",
          "155407.452500",
          "155410.062500",
          "155412.672500",
          "155415.282500",
          "155417.895000",
          "155420.505000",
          "155423.115000",
          "155425.725000",
          "155428.335000",
          "155430.947500",
          "155433.557500",
          "155436.167500"
        ],
        "ContentTime": [
          "154816.843000",
          "154817.843000",
          "154817.843000",
          "154819.843000",
          "154822.343000",
          "154824.843000",
          "154827.843000",
          "154830.343000",
          "154832.843000",
          "154835.343000",
          "154838.343000",
          "154840.843000",
          "154843.343000",
          "154845.843000",
          "154848.343000",
          "154851.343000",
          "154853.843000",
          "154856.343000",
          "154858.828000",
          "154901.328000",
          "154904.343000",
          "154906.843000",
          "154909.343000",
          "154911.828000",
          "154914.343000",
          "154916.843000",
          "154919.843000",
          "154922.343000",
          "154924.843000",
          "154927.343000",
          "154930.343000",
          "154932.843000",
          "154935.343000",
          "154937.843000",
          "154940.343000",
          "154943.343000",
          "154945.843000",
          "154948.343000",
          "154950.828000",
          "154953.343000",
          "154955.828000",
          "154958.828000",
          "155001.343000",
          "155003.843000",
          "155006.343000",
          "155009.343000",
          "155011.843000",
          "155014.343000",
          "155016.843000",
          "155019.343000",
          "155021.843000",
          "155024.843000",
          "155027.343000",
          "155029.843000",
          "155032.343000",
          "155035.343000",
          "155037.843000",
          "155040.343000",
          "155042.843000",
          "155045.343000",
          "155047.843000",
          "155050.828000",
          "155053.328000",
          "155055.843000",
          "155058.343000",
          "155101.343000",
          "155103.843000",
          "155106.343000",
          "155108.843000",
          "155111.343000",
          "155113.843000",
          "155116.843000",
          "155119.343000",
          "155121.843000",
          "155124.343000",
          "155126.843000",
          "155129.843000",
          "155132.343000",
          "155134.843000",
          "155137.343000",
          "155140.328000",
          "155142.843000",
          "155145.343000",
          "155147.828000",
          "155150.328000",
          "155152.843000",
          "155155.843000",
          "155158.343000",
          "155200.843000",
          "155203.343000",
          "155205.828000",
          "155208.843000",
          "155211.343000",
          "155213.843000",
          "155216.343000",
          "155219.343000",
          "155221.843000",
          "155224.343000",
          "155226.843000",
          "155229.343000",
          "155232.343000",
          "155234.843000",
          "155237.343000",
          "155239.843000",
          "155242.343000",
          "155245.343000",
          "155247.843000",
          "155250.343000",
          "155252.843000",
          "155255.343000",
          "155257.843000",
          "155300.843000",
          "155303.343000",
          "155305.843000",
          "155308.343000",
          "155310.843000",
          "155313.843000",
          "155316.343000",
          "155318.843000",
          "155321.343000",
          "155324.343000",
          "155326.843000",
          "155329.343000",
          "155331.843000",
          "155334.343000",
          "155336.843000",
          "155339.828000",
          "155342.343000",
          "155344.843000",
          "155347.343000",
          "155349.843000",
          "155352.843000",
          "155355.343000",
          "155357.843000",
          "155400.343000",
          "155402.843000",
          "155405.843000",
          "155408.343000",
          "155410.843000",
          "155413.343000",
          "155415.843000",
          "155418.843000",
          "155421.343000",
          "155423.843000",
          "155426.343000",
          "155428.843000",
          "155431.843000",
          "155434.343000",
          "155436.828000",
          "155444.218000"
        ],
        "InstanceCreationTime": [
          "154816.843000",
          "154817.843000",
          "154817.843000",
          "154819.843000",
          "154822.343000",
          "154824.843000",
          "154827.843000",
          "154830.343000",
          "154832.843000",
          "154835.343000",
          "154838.343000",
          "154840.843000",
          "154843.343000",
          "154845.843000",
          "154848.343000",
          "154851.343000",
          "154853.843000",
          "154856.343000",
          "154858.828000",
          "154901.328000",
          "154904.343000",
          "154906.843000",
          "154909.343000",
          "154911.828000",
          "154914.343000",
          "154916.843000",
          "154919.843000",
          "154922.343000",
          "154924.843000",
          "154927.343000",
          "154930.343000",
          "154932.843000",
          "154935.343000",
          "154937.843000",
          "154940.343000",
          "154943.343000",
          "154945.843000",
          "154948.343000",
          "154950.828000",
          "154953.343000",
          "154955.828000",
          "154958.828000",
          "155001.343000",
          "155003.843000",
          "155006.343000",
          "155009.343000",
          "155011.843000",
          "155014.343000",
          "155016.843000",
          "155019.343000",
          "155021.843000",
          "155024.843000",
          "155027.343000",
          "155029.843000",
          "155032.343000",
          "155035.343000",
          "155037.843000",
          "155040.343000",
          "155042.843000",
          "155045.343000",
          "155047.843000",
          "155050.828000",
          "155053.328000",
          "155055.843000",
          "155058.343000",
          "155101.343000",
          "155103.843000",
          "155106.343000",
          "155108.843000",
          "155111.343000",
          "155113.843000",
          "155116.843000",
          "155119.343000",
          "155121.843000",
          "155124.343000",
          "155126.843000",
          "155129.843000",
          "155132.343000",
          "155134.843000",
          "155137.343000",
          "155140.328000",
          "155142.843000",
          "155145.343000",
          "155147.828000",
          "155150.328000",
          "155152.843000",
          "155155.843000",
          "155158.343000",
          "155200.843000",
          "155203.343000",
          "155205.828000",
          "155208.843000",
          "155211.343000",
          "155213.843000",
          "155216.343000",
          "155219.343000",
          "155221.843000",
          "155224.343000",
          "155226.843000",
          "155229.343000",
          "155232.343000",
          "155234.843000",
          "155237.343000",
          "155239.843000",
          "155242.343000",
          "155245.343000",
          "155247.843000",
          "155250.343000",
          "155252.843000",
          "155255.343000",
          "155257.843000",
          "155300.843000",
          "155303.343000",
          "155305.843000",
          "155308.343000",
          "155310.843000",
          "155313.843000",
          "155316.343000",
          "155318.843000",
          "155321.343000",
          "155324.343000",
          "155326.843000",
          "155329.343000",
          "155331.843000",
          "155334.343000",
          "155336.843000",
          "155339.828000",
          "155342.343000",
          "155344.843000",
          "155347.343000",
          "155349.843000",
          "155352.843000",
          "155355.343000",
          "155357.843000",
          "155400.343000",
          "155402.843000",
          "155405.843000",
          "155408.343000",
          "155410.843000",
          "155413.343000",
          "155415.843000",
          "155418.843000",
          "155421.343000",
          "155423.843000",
          "155426.343000",
          "155428.843000",
          "155431.843000",
          "155434.343000",
          "155436.828000",
          "155444.218000"
        ],
        "InstanceNumber": [
          1,
          2,
          3,
          4,
          5,
          6,
          7,
          8,
          9,
          10,
          11,
          12,
          13,
          14,
          15,
          16,
          17,
          18,
          19,
          20,
          21,
          22,
          23,
          24,
          25,
          26,
          27,
          28,
          29,
          30,
          31,
          32,
          33,
          34,
          35,
          36,
          37,
          38,
          39,
          40,
          41,
          42,
          43,
          44,
          45,
          46,
          47,
          48,
          49,
          50,
          51,
          52,
          53,
          54,
          55,
          56,
          57,
          58,
          59,
          60,
          61,
          62,
          63,
          64,
          65,
          66,
          67,
          68,
          69,
          70,
          71,
          72,
          73,
          74,
          75,
          76,
          77,
          78,
          79,
          80,
          81,
          82,
          83,
          84,
          85,
          86,
          87,
          88,
          89,
          90,
          91,
          92,
          93,
          94,
          95,
          96,
          97,
          98,
          99,
          100,
          101,
          102,
          103,
          104,
          105,
          106,
          107,
          108,
          109,
          110,
          111,
          112,
          113,
          114,
          115,
          116,
          117,
          118,
          119,
          120,
          121,
          122,
          123,
          124,
          125,
          126,
          127,
          128,
          129,
          130,
          131,
          132,
          133,
          134,
          135,
          136,
          137,
          138,
          139,
          140,
          141,
          142,
          143,
          144,
          145,
          146,
          147,
          148,
          149,
          150
        ],
        "WindowCenter": [
          857.0,
          852.0,
          852.0,
          852.0,
          852.0,
          853.0,
          855.0,
          856.0,
          855.0,
          855.0,
          855.0,
          855.0,
          855.0,
          854.0,
          854.0,
          855.0,
          856.0,
          854.0,
          854.0,
          854.0,
          855.0,
          855.0,
          854.0,
          855.0,
          854.0,
          854.0,
          854.0,
          854.0,
          854.0,
          855.0,
          855.0,
          854.0,
          854.0,
          855.0,
          855.0,
          855.0,
          854.0,
          853.0,
          853.0,
          854.0,
          854.0,
          854.0,
          855.0,
          854.0,
          854.0,
          854.0,
          854.0,
          854.0,
          855.0,
          855.0,
          856.0,
          855.0,
          853.0,
          853.0,
          854.0,
          853.0,
          853.0,
          854.0,
          854.0,
          855.0,
          854.0,
          854.0,
          854.0,
          854.0,
          854.0,
          855.0,
          854.0,
          855.0,
          854.0,
          855.0,
          854.0,
          853.0,
          855.0,
          855.0,
          854.0,
          854.0,
          853.0,
          853.0,
          854.0,
          854.0,
          854.0,
          854.0,
          854.0,
          854.0,
          854.0,
          854.0,
          854.0,
          855.0,
          855.0,
          855.0,
          855.0,
          854.0,
          854.0,
          854.0,
          854.0,
          854.0,
          853.0,
          854.0,
          854.0,
          855.0,
          854.0,
          855.0,
          854.0,
          854.0,
          854.0,
          855.0,
          855.0,
          854.0,
          854.0,
          855.0,
          855.0,
          855.0,
          855.0,
          856.0,
          856.0,
          854.0,
          853.0,
          853.0,
          854.0,
          855.0,
          854.0,
          855.0,
          856.0,
          854.0,
          854.0,
          853.0,
          854.0,
          854.0,
          854.0,
          855.0,
          855.0,
          854.0,
          854.0,
          855.0,
          856.0,
          856.0,
          854.0,
          854.0,
          854.0,
          853.0,
          853.0,
          853.0,
          854.0,
          854.0,
          855.0,
          855.0,
          855.0,
          855.0,
          855.0,
          856.0
        ],
        "WindowWidth": [
          1942.0,
          1927.0,
          1924.0,
          1926.0,
          1928.0,
          1930.0,
          1938.0,
          1940.0,
          1937.0,
          1937.0,
          1936.0,
          1938.0,
          1935.0,
          1933.0,
          1934.0,
          1937.0,
          1941.0,
          1934.0,
          1934.0,
          1935.0,
          1937.0,
          1938.0,
          1934.0,
          1936.0,
          1932.0,
          1932.0,
          1932.0,
          1932.0,
          1935.0,
          1936.0,
          1939.0,
          1934.0,
          1933.0,
          1936.0,
          1937.0,
          1936.0,
          1933.0,
          1931.0,
          1932.0,
          1933.0,
          1935.0,
          1933.0,
          1938.0,
          1934.0,
          1934.0,
          1935.0,
          1934.0,
          1934.0,
          1936.0,
          1936.0,
          1939.0,
          1937.0,
          1931.0,
          1930.0,
          1932.0,
          1930.0,
          1931.0,
          1931.0,
          1934.0,
          1936.0,
          1933.0,
          1932.0,
          1932.0,
          1934.0,
          1934.0,
          1935.0,
          1935.0,
          1936.0,
          1934.0,
          1938.0,
          1933.0,
          1929.0,
          1935.0,
          1937.0,
          1934.0,
          1933.0,
          1931.0,
          1929.0,
          1932.0,
          1934.0,
          1934.0,
          1934.0,
          1932.0,
          1933.0,
          1934.0,
          1931.0,
          1934.0,
          1936.0,
          1935.0,
          1937.0,
          1935.0,
          1934.0,
          1932.0,
          1932.0,
          1932.0,
          1933.0,
          1931.0,
          1935.0,
          1933.0,
          1936.0,
          1932.0,
          1937.0,
          1935.0,
          1934.0,
          1934.0,
          1935.0,
          1936.0,
          1932.0,
          1935.0,
          1937.0,
          1939.0,
          1939.0,
          1937.0,
          1943.0,
          1941.0,
          1933.0,
          1929.0,
          1929.0,
          1933.0,
          1935.0,
          1934.0,
          1938.0,
          1940.0,
          1933.0,
          1932.0,
          1930.0,
          1931.0,
          1932.0,
          1933.0,
          1935.0,
          1937.0,
          1934.0,
          1934.0,
          1938.0,
          1941.0,
          1938.0,
          1933.0,
          1932.0,
          1932.0,
          1929.0,
          1929.0,
          1929.0,
          1932.0,
          1933.0,
          1936.0,
          1936.0,
          1938.0,
          1937.0,
          1935.0,
          1939.0
        ]
      },
      "slices": {}
    }
  },
  "dummy_trs": 0,
  "dvars_nstd": 74.81572190798654,
  "dvars_std": 1.0780770846979857,
  "dvars_vstd": 1.0193332497315437,
  "efc": 0.5731628648932028,
  "fber": 336.8839416503906,
  "fd_mean": 0.04141971079974398,
  "fd_num": 1,
  "fd_perc": 0.6666666666666666,
  "fwhm_avg": 2.897312486994128,
  "fwhm_x": 2.799173857474505,
  "fwhm_y": 2.869390941764989,
  "fwhm_z": 3.0233726617428895,
  "gcor": 0.00182578,
  "gsr_x": 0.0015784158604219556,
  "gsr_y": 0.04596180096268654,
  "provenance": {
    "md5sum": "a2e9624453abc2b0470281feee28205a",
    "settings": {
      "fd_thres": 0.2,
      "testing": false
    },
    "software": "mriqc",
    "version": "23.0.1",
    "webapi_port": null,
    "webapi_url": "https://mriqc.nimh.nih.gov/api/v1"
  },
  "size_t": 150,
  "size_x": 188,
  "size_y": 188,
  "size_z": 46,
  "snr": 2.4599859537692383,
  "spacing_tr": 2.5999999046325684,
  "spacing_x": 1.0957447290420532,
  "spacing_y": 1.0957447290420532,
  "spacing_z": 1.100000023841858,
  "summary_bg_k": 53.012207142553144,
  "summary_bg_mad": 24.522242051445527,
  "summary_bg_mean": 89.7367935180664,
  "summary_bg_median": 50.50666809082031,
  "summary_bg_n": 1061751.0,
  "summary_bg_p05": 31.880001068115234,
  "summary_bg_p95": 270.8000183105469,
