{
  "aor": 0.0008294666666666667,
  "aqi": 0.013011540666666667,
  "bids_meta": {
    "AcquisitionMatrixPE": 188,
    "AcquisitionNumber": 1,
    "AcquisitionTime": "16:11:28.410000",
    "BandwidthPerPixelPhaseEncode": 19.46,
    "BaseResolution": 188,
    "CogAtlasID": "TODO",
    "ConversionSoftware": "dcm2niix",
    "ConversionSoftwareVersion": "v1.0.20180606 GCC4.8.5",
    "DelayTime": 1.2,
    "DerivedVendorReportedEchoSpacing": 0.000820013,
    "DeviceSerialNumber": "18930",
    "DwellTime": 1.9e-06,
    "EchoTime": 0.02,
    "EffectiveEchoSpacing": 0.000273338,
    "FlipAngle": 80,
    "ImageComments": "Unaliased_MB2_PE2",
    "ImageOrientationPatientDICOM": [
      0.997694,
      0.0552999,
      -0.0393616,
      -0.0469247,
      0.142908,
      -0.988623
    ],
    "ImageType": [
      "ORIGINAL",
      "PRIMARY",
      "M",
      "MB",
      "ND",
      "MOSAIC"
    ],
    "InPlanePhaseEncodingDirectionDICOM": "COL",
    "InstitutionAddress": "Oxfordlaan_55_Maastricht_753AAF_Limburg_NL_6229_EV",
    "InstitutionName": "Scannexus",
    "InstitutionalDepartmentName": "MRI_7T",
    "MRAcquisitionType": "2D",
    "MagneticFieldStrength": 6.98,
    "Manufacturer": "Siemens",
    "ManufacturersModelName": "Investigational_Device_7T",
    "Modality": "MR",
    "MultibandAccelerationFactor": 2,
    "ParallelReductionFactorInPlane": 3,
    "PartialFourier": 0.75,
    "PatientPosition": "HFS",
    "PercentPhaseFOV": 100,
    "PhaseEncodingDirection": "j",
    "PhaseEncodingSteps": 141,
    "PhaseResolution": 1,
    "PixelBandwidth": 1400,
    "ProcedureStepDescription": "FeDem_Faruk",
    "ProtocolName": "cmrr_mbep2d_bold_AP_run11",
    "PulseSequenceDetails": "%CustomerSeq%_cmrr_mbep2d_bold",
    "ReceiveCoilName": "32Ch_Head_7T",
    "ReconMatrixPE": 188,
    "RepetitionTime": 2.6,
    "SAR": 0.0586533,
    "ScanOptions": "PFP_FS",
    "ScanningSequence": "EP",
    "SequenceName": "epfid2d1_188",
    "SequenceVariant": "SK_SS",
    "SeriesDescription": "cmrr_mbep2d_bold_AP_run11",
    "SeriesNumber": 24,
    "ShimSetting": [
      74,
      22,
      526,
      331,
      -94,
      30,
      178,
      188
    ],
    "SliceThickness": 1.1,
    "SliceTiming": [
      0,
      0.7325,
      0.06,
      0.795,
      0.1225,
      0.855,
      0.1825,
      0.9175,
      0.245,
      0.9775,
      0.305,
      1.0375,
      0.3675,
      1.1,
      0.4275,
      1.16,
      0.4875,
      1.2225,
      0.55,
      1.2825,
      0.61,
      1.345,
      0.6725,
      0,
      0.7325,
      0.06,
      0.795,
      0.1225,
      0.855,
      0.1825,
      0.9175,
      0.245,
      0.9775,
      0.305,
      1.0375,
      0.3675,
      1.1,
      0.4275,
      1.16,
      0.4875,
      1.2225,
      0.55,
      1.2825,
      0.61,
      1.345,
      0.6725
    ],
    "SoftwareVersions": "syngo_MR_B17",
    "SpacingBetweenSlices": 1.1,
    "StationName": "MRC18930",
    "TaskName": "auditory",
    "TotalReadoutTime": 0.0511141,
    "TxRefAmp": 210,
    "dataset": "ds001942",
    "dcmmeta_affine": [
      [
        -1.0932174921035767,
        -0.051417529582977295,
        0.053950224071741104,
        101.08625793457031
      ],
      [
        -0.06059454008936882,
        0.1565903127193451,
        -1.0870089530944824,
        41.250267028808594
      ],
      [
        -0.043130211532115936,
        1.0832784175872803,
        0.15969029068946838,
        -112.83697509765625
      ],
      [
        0.0,
        0.0,
        0.0,
        1.0
      ]
    ],
    "dcmmeta_reorient_transform": [
      [
        0.0,
        -1.0,
        0.0,
        187.0
      ],
      [
        1.0,
        0.0,
        0.0,
        0.0
      ],
      [
        0.0,
        0.0,
        1.0,
        0.0
      ],
      [
        0.0,
        0.0,
        0.0,
        1.0
      ]
    ],
    "dcmmeta_shape": [
      188,
      188,
      46,
      150
    ],
    "dcmmeta_slice_dim": 2,
    "dcmmeta_version": 0.6,
    "global": {
      "const": {
        "AcquisitionMatrix": [
          188,
          0,
          0,
          188
        ],
        "AngioFlag": "N",
        "BitsAllocated": 16,
        "BitsStored": 12,
        "Columns": 1316,
        "EchoNumbers": 1,
        "EchoTime": 20.0,
        "EchoTrainLength": 1,
        "FlipAngle": 80.0,
        "HighBit": 11,
        "ImageOrientationPatient": [
          0.99769363669209,
          0.05529987056619,
          -0.0393615500135,
          -0.0469247344932,
          0.14290765139171,
          -0.9886230183778
        ],
        "ImagePositionPatient": [
          -679.04638794689,
          -193.02490866948,
          725.0305860642
        ],
        "ImageType": [
          "ORIGINAL",
          "PRIMARY",
          "M",
          "MB",
          "ND",
          "MOSAIC"
        ],
        "ImagedNucleus": "1H",
        "ImagingFrequency": 297.205647,
        "InPlanePhaseEncodingDirection": "COL",
        "LargestImagePixelValue": 4095,
        "MRAcquisitionType": "2D",
        "MagneticFieldStrength": 6.98,
        "Manufacturer": "SIEMENS",
        "ManufacturerModelName": "Investigational_Device_7T",
        "Modality": "MR",
        "NumberOfAverages": 1.0,
        "NumberOfPhaseEncodingSteps": 141,
        "PercentPhaseFieldOfView": 100.0,
        "PercentSampling": 100.0,
        "PerformedProcedureStepStartTime": "142439.593000",
        "PhotometricInterpretation": "MONOCHROME2",
        "PixelBandwidth": 1400.0,
        "PixelRepresentation": 0,
        "PixelSpacing": [
          1.0957447290421,
          1.0957447290421
        ],
        "ProtocolName": "cmrr_mbep2d_bold_AP_run11",
        "RepetitionTime": 2600.0,
        "Rows": 1316,
        "SAR": 0.058653306447,
        "SamplesPerPixel": 1,
        "ScanOptions": [
          "PFP",
          "FS"
        ],
        "ScanningSequence": "EP",
        "SequenceName": "epfid2d1_188",
        "SequenceVariant": [
          "SK",
          "SS"
        ],
        "SeriesDescription": "cmrr_mbep2d_bold_AP_run11",
        "SeriesNumber": 24,
        "SeriesTime": "161138.281000",
        "SliceLocation": -52.186137634346,
        "SliceThickness": 1.1000000238419,
        "SmallestImagePixelValue": 0,
        "SoftwareVersions": "syngo MR B17",
        "SpacingBetweenSlices": 1.1000000019064,
        "SpecificCharacterSet": "ISO_IR 100",
        "StudyID": "1",
        "StudyTime": "142439.546000",
        "TransmitCoilName": "32Ch_Head_7T",
        "VariableFlipAngleFlag": "N",
        "WindowCenterWidthExplanation": "Algo1",
        "dBdt": 0.0
      },
      "slices": {}
    },
    "modality": "bold",
    "run_id": 11,
    "session_id": "SES03",
    "subject_id": "S07",
    "task_id": "auditory",
    "time": {
      "samples": {
        "AcquisitionNumber": [
          1,
          2,
          3,
          4,
          5,
          6,
          7,
          8,
          9,
          10,
          11,
          12,
          13,
          14,
          15,
          16,
          17,
          18,
          19,
          20,
          21,
          22,
          23,
          24,
          25,
          26,
          27,
          28,
          29,
          30,
          31,
          32,
          33,
          34,
          35,
          36,
          37,
          38,
          39,
          40,
          41,
          42,
          43,
          44,
          45,
          46,
          47,
          48,
          49,
          50,
          51,
          52,
          53,
          54,
          55,
          56,
          57,
          58,
          59,
          60,
          61,
          62,
          63,
          64,
          65,
          66,
          67,
          68,
          69,
          70,
          71,
          72,
          73,
          74,
          75,
          76,
          77,
          78,
          79,
          80,
          81,
          82,
          83,
          84,
          85,
          86,
          87,
          88,
          89,
          90,
          91,
          92,
          93,
          94,
          95,
          96,
          97,
          98,
          99,
          100,
          101,
          102,
          103,
          104,
          105,
          106,
          107,
          108,
          109,
          110,
          111,
          112,
          113,
          114,
          115,
          116,
          117,
          118,
          119,
          120,
          121,
          122,
          123,
          124,
          125,
          126,
          127,
          128,
          129,
          130,
          131,
          132,
          133,
          134,
          135,
          136,
          137,
          138,
          139,
          140,
          141,
          142,
          143,
          144,
          145,
          146,
          147,
          148,
          149,
          150
        ],
        "AcquisitionTime": [
          "161128.410000",
          "161131.020000",
          "161133.630000",
          "161136.240000",
          "161138.852500",
          "161141.462500",
          "161144.072500",
          "161146.682500",
          "161149.292500",
          "161151.905000",
          "161154.515000",
          "161157.125000",
          "161159.735000",
          "161202.345000",
          "161204.955000",
          "161207.567500",
          "161210.177500",
          "161212.787500",
          "161215.397500",
          "161218.007500",
          "161220.617500",
          "161223.230000",
          "161225.840000",
          "161228.450000",
          "161231.060000",
          "161233.670000",
          "161236.282500",
          "161238.892500",
          "161241.502500",
          "161244.112500",
          "161246.722500",
          "161249.332500",
          "161251.945000",
          "161254.555000",
          "161257.165000",
          "161259.775000",
          "161302.385000",
          "161304.995000",
          "161307.607500",
          "161310.217500",
          "161312.827500",
          "161315.437500",
          "161318.047500",
          "161320.660000",
          "161323.270000",
          "161325.880000",
          "161328.490000",
          "161331.100000",
          "161333.710000",
          "161336.322500",
          "161338.932500",
          "161341.542500",
          "161344.152500",
          "161346.762500",
          "161349.372500",
          "161351.985000",
          "161354.595000",
          "161357.205000",
          "161359.815000",
          "161402.425000",
          "161405.037500",
          "161407.647500",
          "161410.257500",
          "161412.867500",
          "161415.477500",
          "161418.087500",
          "161420.700000",
          "161423.310000",
          "161425.920000",
          "161428.530000",
          "161431.140000",
          "161433.750000",
          "161436.362500",
          "161438.972500",
          "161441.582500",
          "161444.192500",
          "161446.802500",
          "161449.415000",
          "161452.025000",
          "161454.635000",
          "161457.245000",
          "161459.855000",
          "161502.465000",
          "161505.077500",
          "161507.687500",
          "161510.297500",
          "161512.907500",
          "161515.517500",
          "161518.130000",
          "161520.740000",
          "161523.350000",
          "161525.960000",
          "161528.570000",
          "161531.180000",
          "161533.792500",
          "161536.402500",
          "161539.012500",
          "161541.622500",
          "161544.232500",
          "161546.842500",
          "161549.455000",
          "161552.065000",
          "161554.675000",
          "161557.285000",
          "161559.895000",
          "161602.507500",
          "161605.117500",
          "161607.727500",
          "161610.337500",
          "161612.947500",
          "161615.557500",
          "161618.170000",
          "161620.780000",
          "161623.390000",
          "161626.000000",
          "161628.610000",
          "161631.220000",
          "161633.832500",
          "161636.442500",
          "161639.052500",
          "161641.662500",
          "161644.272500",
          "161646.885000",
          "161649.495000",
          "161652.105000",
          "161654.715000",
          "161657.325000",
          "161659.935000",
          "161702.547500",
          "161705.157500",
          "161707.767500",
          "161710.377500",
          "161712.987500",
          "161715.597500",
          "161718.210000",
          "161720.820000",
          "161723.430000",
          "161726.040000",
          "161728.650000",
          "161731.262500",
          "161733.872500",
          "161736.482500",
          "161739.092500",
          "161741.702500",
          "161744.312500",
          "161746.925000",
          "161749.535000",
          "161752.145000",
          "161754.755000",
          "161757.365000"
        ],
        "ContentTime": [
          "161138.281000",
          "161138.296000",
          "161139.281000",
          "161141.281000",
          "161143.781000",
          "161146.781000",
          "161149.281000",
          "161151.781000",
          "161154.281000",
          "161156.781000",
          "161159.781000",
          "161202.281000",
          "161204.781000",
          "161207.281000",
          "161209.781000",
          "161212.281000",
          "161215.281000",
          "161217.781000",
          "161220.281000",
          "161222.781000",
          "161225.281000",
          "161228.281000",
          "161230.781000",
          "161233.281000",
          "161235.781000",
          "161238.281000",
          "161241.281000",
          "161243.781000",
          "161246.281000",
          "161248.781000",
          "161251.781000",
          "161254.281000",
          "161256.781000",
          "161259.281000",
          "161301.781000",
          "161304.781000",
          "161307.281000",
          "161309.781000",
          "161312.281000",
          "161314.781000",
          "161317.281000",
          "161320.281000",
          "161322.781000",
          "161325.281000",
          "161327.781000",
          "161330.281000",
          "161333.281000",
          "161335.781000",
          "161338.281000",
          "161340.781000",
          "161343.781000",
          "161346.281000",
          "161348.781000",
          "161351.281000",
          "161353.781000",
          "161356.781000",
          "161359.281000",
          "161401.781000",
          "161404.281000",
          "161406.781000",
          "161409.281000",
          "161412.281000",
          "161414.781000",
          "161417.281000",
          "161419.781000",
          "161422.781000",
          "161425.281000",
          "161427.781000",
          "161430.281000",
          "161432.781000",
          "161435.781000",
          "161438.281000",
          "161440.781000",
          "161443.281000",
          "161445.781000",
          "161448.781000",
          "161451.281000",
          "161453.781000",
          "161456.281000",
          "161458.781000",
          "161501.781000",
          "161504.281000",
          "161506.781000",
          "161509.281000",
          "161511.781000",
          "161514.281000",
          "161517.281000",
          "161519.781000",
          "161522.281000",
          "161524.781000",
          "161527.781000",
          "161530.281000",
          "161532.781000",
          "161535.281000",
          "161537.781000",
          "161540.281000",
          "161543.281000",
          "161545.781000",
          "161548.281000",
          "161550.781000",
          "161553.781000",
          "161556.281000",
          "161558.781000",
          "161601.281000",
          "161603.781000",
          "161606.781000",
          "161609.281000",
          "161611.781000",
          "161614.281000",
          "161616.781000",
          "161619.281000",
          "161622.281000",
          "161624.781000",
          "161627.281000",
          "161629.781000",
          "161632.781000",
          "161635.281000",
          "161637.781000",
          "161640.281000",
          "161642.781000",
          "161645.781000",
          "161648.281000",
          "161650.781000",
          "161653.281000",
          "161655.781000",
          "161658.281000",
          "161701.281000",
          "161703.781000",
          "161706.281000",
          "161708.781000",
          "161711.781000",
          "161714.281000",
          "161716.781000",
          "161719.281000",
          "161721.781000",
          "161724.281000",
          "161727.281000",
          "161729.781000",
          "161732.281000",
          "161734.781000",
          "161737.781000",
          "161740.281000",
          "161742.781000",
          "161745.281000",
          "161747.781000",
          "161750.281000",
          "161753.281000",
          "161755.781000",
          "161758.281000",
          "161805.640000"
        ],
        "InstanceCreationTime": [
          "161138.281000",
          "161138.296000",
          "161139.281000",
          "161141.281000",
          "161143.781000",
          "161146.781000",
          "161149.281000",
          "161151.781000",
          "161154.281000",
          "161156.781000",
          "161159.781000",
          "161202.281000",
          "161204.781000",
          "161207.281000",
          "161209.781000",
          "161212.281000",
          "161215.281000",
          "161217.781000",
          "161220.281000",
          "161222.781000",
          "161225.281000",
          "161228.281000",
          "161230.781000",
          "161233.281000",
          "161235.781000",
          "161238.281000",
          "161241.281000",
          "161243.781000",
          "161246.281000",
          "161248.781000",
          "161251.781000",
          "161254.281000",
          "161256.781000",
          "161259.281000",
          "161301.781000",
          "161304.781000",
          "161307.281000",
          "161309.781000",
          "161312.281000",
          "161314.781000",
          "161317.281000",
          "161320.281000",
          "161322.781000",
          "161325.281000",
          "161327.781000",
          "161330.281000",
          "161333.281000",
          "161335.781000",
          "161338.281000",
          "161340.781000",
          "161343.781000",
          "161346.281000",
          "161348.781000",
          "161351.281000",
          "161353.781000",
          "161356.781000",
          "161359.281000",
          "161401.781000",
          "161404.281000",
          "161406.781000",
          "161409.281000",
          "161412.281000",
          "161414.781000",
          "161417.281000",
          "161419.781000",
          "161422.781000",
          "161425.281000",
          "161427.781000",
          "161430.281000",
          "161432.781000",
          "161435.781000",
          "161438.281000",
          "161440.781000",
          "161443.281000",
          "161445.781000",
          "161448.781000",
          "161451.281000",
          "161453.781000",
          "161456.281000",
          "161458.781000",
          "161501.781000",
          "161504.281000",
          "161506.781000",
          "161509.281000",
          "161511.781000",
          "161514.281000",
          "161517.281000",
          "161519.781000",
          "161522.281000",
          "161524.781000",
          "161527.781000",
          "161530.281000",
          "161532.781000",
          "161535.281000",
          "161537.781000",
          "161540.281000",
          "161543.281000",
          "161545.781000",
          "161548.281000",
          "161550.781000",
          "161553.781000",
          "161556.281000",
          "161558.781000",
          "161601.281000",
          "161603.781000",
          "161606.781000",
          "161609.281000",
          "161611.781000",
          "161614.281000",
          "161616.781000",
          "161619.281000",
          "161622.281000",
          "161624.781000",
          "161627.281000",
          "161629.781000",
          "161632.781000",
          "161635.281000",
          "161637.781000",
          "161640.281000",
          "161642.781000",
          "161645.781000",
          "161648.281000",
          "161650.781000",
          "161653.281000",
          "161655.781000",
          "161658.281000",
          "161701.281000",
          "161703.781000",
          "161706.281000",
          "161708.781000",
          "161711.781000",
          "161714.281000",
          "161716.781000",
          "161719.281000",
          "161721.781000",
          "161724.281000",
          "161727.281000",
          "161729.781000",
          "161732.281000",
          "161734.781000",
          "161737.781000",
          "161740.281000",
          "161742.781000",
          "161745.281000",
          "161747.781000",
          "161750.281000",
          "161753.281000",
          "161755.781000",
          "161758.281000",
          "161805.640000"
        ],
        "InstanceNumber": [
          1,
          2,
          3,
          4,
          5,
          6,
          7,
          8,
          9,
          10,
          11,
          12,
          13,
          14,
          15,
          16,
          17,
          18,
          19,
          20,
          21,
          22,
          23,
          24,
          25,
          26,
          27,
          28,
          29,
          30,
          31,
          32,
          33,
          34,
          35,
          36,
          37,
          38,
          39,
          40,
          41,
          42,
          43,
          44,
          45,
          46,
          47,
          48,
          49,
          50,
          51,
          52,
          53,
          54,
          55,
          56,
          57,
          58,
          59,
          60,
          61,
          62,
          63,
          64,
          65,
          66,
          67,
          68,
          69,
          70,
          71,
          72,
          73,
          74,
          75,
          76,
          77,
          78,
          79,
          80,
          81,
          82,
          83,
          84,
          85,
          86,
          87,
          88,
          89,
          90,
          91,
          92,
          93,
          94,
          95,
          96,
          97,
          98,
          99,
          100,
          101,
          102,
          103,
          104,
          105,
          106,
          107,
          108,
          109,
          110,
          111,
          112,
          113,
          114,
          115,
          116,
          117,
          118,
          119,
          120,
          121,
          122,
          123,
          124,
          125,
          126,
          127,
          128,
          129,
          130,
          131,
          132,
          133,
          134,
          135,
          136,
          137,
          138,
          139,
          140,
          141,
          142,
          143,
          144,
          145,
          146,
          147,
          148,
          149,
          150
        ],
        "WindowCenter": [
          857.0,
          855.0,
          855.0,
          856.0,
          857.0,
          858.0,
          858.0,
          856.0,
          856.0,
          857.0,
          857.0,
          856.0,
          854.0,
          855.0,
          855.0,
          856.0,
          855.0,
          856.0,
          854.0,
          856.0,
          856.0,
          855.0,
          855.0,
          855.0,
          855.0,
          856.0,
          855.0,
          857.0,
          857.0,
          857.0,
          857.0,
          856.0,
          856.0,
          857.0,
          856.0,
          857.0,
          856.0,
          856.0,
          857.0,
          857.0,
          856.0,
          856.0,
          855.0,
          855.0,
          856.0,
          856.0,
          856.0,
          856.0,
          856.0,
          856.0,
          855.0,
          855.0,
          855.0,
          855.0,
          856.0,
          857.0,
          857.0,
          856.0,
          856.0,
          855.0,
          855.0,
          855.0,
          855.0,
          856.0,
          856.0,
          856.0,
          855.0,
          855.0,
          855.0,
          856.0,
          857.0,
          856.0,
          855.0,
          856.0,
          858.0,
          856.0,
          855.0,
          855.0,
          856.0,
          856.0,
          856.0,
          856.0,
          855.0,
          854.0,
          856.0,
          856.0,
          856.0,
          856.0,
          857.0,
          856.0,
          857.0,
          856.0,
          857.0,
          857.0,
          858.0,
          856.0,
          856.0,
          856.0,
          856.0,
          856.0,
          857.0,
          857.0,
          856.0,
          856.0,
          855.0,
          855.0,
          855.0,
          856.0,
          858.0,
          858.0,
          858.0,
          857.0,
          858.0,
          857.0,
          857.0,
          857.0,
          857.0,
          856.0,
          857.0,
          857.0,
          857.0,
          857.0,
          857.0,
          857.0,
          856.0,
          857.0,
          857.0,
          856.0,
          857.0,
          858.0,
          856.0,
          857.0,
          857.0,
          857.0,
          857.0,
          857.0,
          857.0,
          856.0,
          857.0,
          857.0,
          857.0,
          857.0,
          857.0,
          857.0,
          858.0,
          858.0,
          857.0,
          858.0,
          857.0,
          857.0
        ],
        "WindowWidth": [
          1943.0,
          1936.0,
          1937.0,
          1938.0,
          1943.0,
          1947.0,
          1945.0,
          1940.0,
          1939.0,
          1944.0,
          1943.0,
          1937.0,
          1932.0,
          1935.0,
          1934.0,
          1937.0,
          1937.0,
          1937.0,
          1932.0,
          1939.0,
          1937.0,
          1933.0,
          1935.0,
          1936.0,
          1937.0,
          1938.0,
          1935.0,
          1943.0,
          1944.0,
          1945.0,
          1942.0,
          1939.0,
          1939.0,
          1941.0,
          1940.0,
          1941.0,
          1937.0,
          1938.0,
          1941.0,
          1940.0,
          1937.0,
          1938.0,
          1936.0,
          1936.0,
          1938.0,
          1938.0,
          1937.0,
          1938.0,
          1938.0,
          1938.0,
          1936.0,
          1934.0,
          1937.0,
          1936.0,
          1941.0,
          1943.0,
          1941.0,
          1939.0,
          1939.0,
          1936.0,
          1935.0,
          1934.0,
          1934.0,
          1937.0,
          1939.0,
          1940.0,
          1936.0,
          1936.0,
          1936.0,
          1939.0,
          1941.0,
          1939.0,
          1935.0,
          1941.0,
          1947.0,
          1938.0,
          1936.0,
          1935.0,
          1937.0,
          1940.0,
          1939.0,
          1937.0,
          1935.0,
          1933.0,
          1937.0,
          1938.0,
          1937.0,
          1939.0,
          1942.0,
          1938.0,
          1941.0,
          1939.0,
          1941.0,
          1945.0,
          1946.0,
          1940.0,
          1937.0,
          1938.0,
          1938.0,
          1939.0,
          1940.0,
          1940.0,
          1938.0,
          1937.0,
          1936.0,
          1935.0,
          1936.0,
          1938.0,
          1944.0,
          1946.0,
          1945.0,
          1943.0,
          1946.0,
          1942.0,
          1942.0,
          1941.0,
          1943.0,
          1940.0,
          1941.0,
          1942.0,
          1941.0,
          1942.0,
          1941.0,
          1942.0,
          1938.0,
          1940.0,
          1940.0,
          1939.0,
          1943.0,
          1944.0,
          1939.0,
          1940.0,
          1941.0,
          1940.0,
          1941.0,
          1943.0,
          1943.0,
          1939.0,
          1940.0,
          1941.0,
          1941.0,
          1942.0,
          1941.0,
          1942.0,
          1945.0,
          1945.0,
          1943.0,
          1944.0,
          1943.0,
          1942.0
        ]
      },
      "slices": {}
    }
  },
  "dummy_trs": 0,
  "dvars_nstd": 75.00707951476508,
  "dvars_std": 1.0798512953691277,
  "dvars_vstd": 1.0235134275167785,
  "efc": 0.5741464127555812,
  "fber": 330.65625,
  "fd_mean": 0.04716675120459908,
  "fd_num": 2,
  "fd_perc": 1.3333333333333333,
  "fwhm_avg": 2.905073951887863,
  "fwhm_x": 2.8045583232571127,
  "fwhm_y": 2.874072689131901,
  "fwhm_z": 3.0365908432745754,
  "gcor": 0.00180198,
  "gsr_x": 0.0012697639176622033,
  "gsr_y": 0.047493427991867065,
  "provenance": {
    "md5sum": "012a49ef3997618b83133ca6e138400e",
    "settings": {
      "fd_thres": 0.2,
      "testing": false
    },
    "software": "mriqc",
    "version": "22.0.0rc1",
    "webapi_port": null,
    "webapi_url": "https://mriqc.nimh.nih.gov/api/v1"
  },
  "size_t": 150,
  "size_x": 188,
  "size_y": 188,
  "size_z": 46,
  "snr": 2.4508764503149414,
  "spacing_tr": 2.5999999046325684,
  "spacing_x": 1.0957447290420532,
  "spacing_y": 1.0957447290420532,
  "spacing_z": 1.100000023841858,
  "summary_bg_k": 52.44856542404537,
  "summary_bg_mad": 25.18446546210845,
  "summary_bg_mean": 91.19286346435547,
  "summary_bg_median": 51.03333282470703,
  "summary_bg_n": 1061765.0,
  "summary_bg_p05": 31.920000076293945,
