{
  "aor": 0.0007811333333333333,
  "aqi": 0.013781005999999998,
  "bids_meta": {
    "AcquisitionMatrixPE": 188,
    "AcquisitionNumber": 1,
    "AcquisitionTime": "15:14:58.172500",
    "BandwidthPerPixelPhaseEncode": 19.46,
    "BaseResolution": 188,
    "ConversionSoftware": "dcm2niix",
    "ConversionSoftwareVersion": "v1.0.20180606 GCC4.8.5",
    "DelayTime": 1.2,
    "DerivedVendorReportedEchoSpacing": 0.000820013,
    "DeviceSerialNumber": "18930",
    "DwellTime": 1.9e-06,
    "EchoTime": 0.02,
    "EffectiveEchoSpacing": 0.000273338,
    "FlipAngle": 80,
    "ImageComments": "Unaliased_MB2_PE2",
    "ImageOrientationPatientDICOM": [
      0.997694,
      0.0552999,
      -0.0393616,
      -0.0469247,
      0.142908,
      -0.988623
    ],
    "ImageType": [
      "ORIGINAL",
      "PRIMARY",
      "M",
      "MB",
      "ND",
      "MOSAIC"
    ],
    "InPlanePhaseEncodingDirectionDICOM": "COL",
    "InstitutionAddress": "Oxfordlaan_55_Maastricht_753AAF_Limburg_NL_6229_EV",
    "InstitutionName": "Scannexus",
    "InstitutionalDepartmentName": "MRI_7T",
    "MRAcquisitionType": "2D",
    "MagneticFieldStrength": 6.98,
    "Manufacturer": "Siemens",
    "ManufacturersModelName": "Investigational_Device_7T",
    "Modality": "MR",
    "MultibandAccelerationFactor": 2,
    "ParallelReductionFactorInPlane": 3,
    "PartialFourier": 0.75,
    "PatientPosition": "HFS",
    "PercentPhaseFOV": 100,
    "PhaseEncodingDirection": "j",
    "PhaseEncodingSteps": 141,
    "PhaseResolution": 1,
    "PixelBandwidth": 1400,
    "ProcedureStepDescription": "FeDem_Faruk",
    "ProtocolName": "cmrr_mbep2d_bold_AP_run4",
    "PulseSequenceDetails": "%CustomerSeq%_cmrr_mbep2d_bold",
    "ReceiveCoilName": "32Ch_Head_7T",
    "ReconMatrixPE": 188,
    "RepetitionTime": 2.6,
    "SAR": 0.0585861,
    "ScanOptions": "PFP_FS",
    "ScanningSequence": "EP",
    "SequenceName": "epfid2d1_188",
    "SequenceVariant": "SK_SS",
    "SeriesDescription": "cmrr_mbep2d_bold_AP_run4",
    "SeriesNumber": 15,
    "ShimSetting": [
      74,
      22,
      526,
      331,
      -94,
      30,
      178,
      188
    ],
    "SliceThickness": 1.1,
    "SliceTiming": [
      0,
      0.7325,
      0.0625,
      0.795,
      0.1225,
      0.855,
      0.1825,
      0.9175,
      0.245,
      0.9775,
      0.305,
      1.04,
      0.3675,
      1.1,
      0.4275,
      1.1625,
      0.49,
      1.2225,
      0.55,
      1.2825,
      0.6125,
      1.345,
      0.6725,
      0,
      0.7325,
      0.0625,
      0.795,
      0.1225,
      0.855,
      0.1825,
      0.9175,
      0.245,
      0.9775,
      0.305,
      1.04,
      0.3675,
      1.1,
      0.4275,
      1.1625,
      0.49,
      1.2225,
      0.55,
      1.2825,
      0.6125,
      1.345,
      0.6725
    ],
    "SoftwareVersions": "syngo_MR_B17",
    "SpacingBetweenSlices": 1.1,
    "StationName": "MRC18930",
    "TaskName": "auditory",
    "TotalReadoutTime": 0.0511141,
    "TxRefAmp": 210,
    "dataset": "ds001942",
    "dcmmeta_affine": [
      [
        -1.0932174921035767,
        -0.051417529582977295,
        0.053950224071741104,
        101.08625793457031
      ],
      [
        -0.06059454008936882,
        0.1565903127193451,
        -1.0870089530944824,
        41.250267028808594
      ],
      [
        -0.043130211532115936,
        1.0832784175872803,
        0.15969029068946838,
        -112.83697509765625
      ],
      [
        0.0,
        0.0,
        0.0,
        1.0
      ]
    ],
    "dcmmeta_reorient_transform": [
      [
        0.0,
        -1.0,
        0.0,
        187.0
      ],
      [
        1.0,
        0.0,
        0.0,
        0.0
      ],
      [
        0.0,
        0.0,
        1.0,
        0.0
      ],
      [
        0.0,
        0.0,
        0.0,
        1.0
      ]
    ],
    "dcmmeta_shape": [
      188,
      188,
      46,
      150
    ],
    "dcmmeta_slice_dim": 2,
    "dcmmeta_version": 0.6,
    "global": {
      "const": {
        "AcquisitionMatrix": [
          188,
          0,
          0,
          188
        ],
        "AngioFlag": "N",
        "BitsAllocated": 16,
        "BitsStored": 12,
        "Columns": 1316,
        "EchoNumbers": 1,
        "EchoTime": 20.0,
        "EchoTrainLength": 1,
        "FlipAngle": 80.0,
        "HighBit": 11,
        "ImageOrientationPatient": [
          0.99769363669209,
          0.05529987056619,
          -0.0393615500135,
          -0.0469247344932,
          0.14290765139171,
          -0.9886230183778
        ],
        "ImagePositionPatient": [
          -679.04638794689,
          -193.02490866948,
          725.0305860642
        ],
        "ImageType": [
          "ORIGINAL",
          "PRIMARY",
          "M",
          "MB",
          "ND",
          "MOSAIC"
        ],
        "ImagedNucleus": "1H",
        "ImagingFrequency": 297.205648,
        "InPlanePhaseEncodingDirection": "COL",
        "LargestImagePixelValue": 4095,
        "MRAcquisitionType": "2D",
        "MagneticFieldStrength": 6.98,
        "Manufacturer": "SIEMENS",
        "ManufacturerModelName": "Investigational_Device_7T",
        "Modality": "MR",
        "NumberOfAverages": 1.0,
        "NumberOfPhaseEncodingSteps": 141,
        "PercentPhaseFieldOfView": 100.0,
        "PercentSampling": 100.0,
        "PerformedProcedureStepStartTime": "142439.593000",
        "PhotometricInterpretation": "MONOCHROME2",
        "PixelBandwidth": 1400.0,
        "PixelRepresentation": 0,
        "PixelSpacing": [
          1.0957447290421,
          1.0957447290421
        ],
        "ProtocolName": "cmrr_mbep2d_bold_AP_run4",
        "RepetitionTime": 2600.0,
        "Rows": 1316,
        "SAR": 0.0585861409047,
        "SamplesPerPixel": 1,
        "ScanOptions": [
          "PFP",
          "FS"
        ],
        "ScanningSequence": "EP",
        "SequenceName": "epfid2d1_188",
        "SequenceVariant": [
          "SK",
          "SS"
        ],
        "SeriesDescription": "cmrr_mbep2d_bold_AP_run4",
        "SeriesNumber": 15,
        "SeriesTime": "151507.921000",
        "SliceLocation": -52.186137634346,
        "SliceThickness": 1.1000000238419,
        "SmallestImagePixelValue": 0,
        "SoftwareVersions": "syngo MR B17",
        "SpacingBetweenSlices": 1.1000000019064,
        "SpecificCharacterSet": "ISO_IR 100",
        "StudyID": "1",
        "StudyTime": "142439.546000",
        "TransmitCoilName": "32Ch_Head_7T",
        "VariableFlipAngleFlag": "N",
        "WindowCenterWidthExplanation": "Algo1",
        "dBdt": 0.0
      },
      "slices": {}
    },
    "modality": "bold",
    "run_id": 4,
    "session_id": "SES03",
    "subject_id": "S07",
    "task_id": "auditory",
    "time": {
      "samples": {
        "AcquisitionNumber": [
          1,
          2,
          3,
          4,
          5,
          6,
          7,
          8,
          9,
          10,
          11,
          12,
          13,
          14,
          15,
          16,
          17,
          18,
          19,
          20,
          21,
          22,
          23,
          24,
          25,
          26,
          27,
          28,
          29,
          30,
          31,
          32,
          33,
          34,
          35,
          36,
          37,
          38,
          39,
          40,
          41,
          42,
          43,
          44,
          45,
          46,
          47,
          48,
          49,
          50,
          51,
          52,
          53,
          54,
          55,
          56,
          57,
          58,
          59,
          60,
          61,
          62,
          63,
          64,
          65,
          66,
          67,
          68,
          69,
          70,
          71,
          72,
          73,
          74,
          75,
          76,
          77,
          78,
          79,
          80,
          81,
          82,
          83,
          84,
          85,
          86,
          87,
          88,
          89,
          90,
          91,
          92,
          93,
          94,
          95,
          96,
          97,
          98,
          99,
          100,
          101,
          102,
          103,
          104,
          105,
          106,
          107,
          108,
          109,
          110,
          111,
          112,
          113,
          114,
          115,
          116,
          117,
          118,
          119,
          120,
          121,
          122,
          123,
          124,
          125,
          126,
          127,
          128,
          129,
          130,
          131,
          132,
          133,
          134,
          135,
          136,
          137,
          138,
          139,
          140,
          141,
          142,
          143,
          144,
          145,
          146,
          147,
          148,
          149,
          150
        ],
        "AcquisitionTime": [
          "151458.172500",
          "151500.782500",
          "151503.392500",
          "151506.005000",
          "151508.615000",
          "151511.225000",
          "151513.835000",
          "151516.445000",
          "151519.057500",
          "151521.667500",
          "151524.277500",
          "151526.887500",
          "151529.497500",
          "151532.107500",
          "151534.720000",
          "151537.330000",
          "151539.940000",
          "151542.550000",
          "151545.160000",
          "151547.772500",
          "151550.382500",
          "151552.992500",
          "151555.602500",
          "151558.212500",
          "151600.822500",
          "151603.435000",
          "151606.045000",
          "151608.655000",
          "151611.265000",
          "151613.875000",
          "151616.485000",
          "151619.097500",
          "151621.707500",
          "151624.317500",
          "151626.927500",
          "151629.537500",
          "151632.150000",
          "151634.760000",
          "151637.370000",
          "151639.980000",
          "151642.590000",
          "151645.200000",
          "151647.812500",
          "151650.422500",
          "151653.032500",
          "151655.642500",
          "151658.252500",
          "151700.862500",
          "151703.475000",
          "151706.085000",
          "151708.695000",
          "151711.305000",
          "151713.915000",
          "151716.527500",
          "151719.137500",
          "151721.747500",
          "151724.357500",
          "151726.967500",
          "151729.577500",
          "151732.190000",
          "151734.800000",
          "151737.410000",
          "151740.020000",
          "151742.630000",
          "151745.240000",
          "151747.852500",
          "151750.462500",
          "151753.072500",
          "151755.682500",
          "151758.292500",
          "151800.905000",
          "151803.515000",
          "151806.125000",
          "151808.735000",
          "151811.345000",
          "151813.955000",
          "151816.567500",
          "151819.177500",
          "151821.787500",
          "151824.397500",
          "151827.007500",
          "151829.617500",
          "151832.230000",
          "151834.840000",
          "151837.450000",
          "151840.060000",
          "151842.670000",
          "151845.282500",
          "151847.892500",
          "151850.502500",
          "151853.112500",
          "151855.722500",
          "151858.332500",
          "151900.945000",
          "151903.555000",
          "151906.165000",
          "151908.775000",
          "151911.385000",
          "151913.995000",
          "151916.607500",
          "151919.217500",
          "151921.827500",
          "151924.437500",
          "151927.047500",
          "151929.660000",
          "151932.270000",
          "151934.880000",
          "151937.490000",
          "151940.100000",
          "151942.710000",
          "151945.322500",
          "151947.932500",
          "151950.542500",
          "151953.152500",
          "151955.762500",
          "151958.372500",
          "152000.985000",
          "152003.595000",
          "152006.205000",
          "152008.815000",
          "152011.425000",
          "152014.037500",
          "152016.647500",
          "152019.257500",
          "152021.867500",
          "152024.477500",
          "152027.087500",
          "152029.700000",
          "152032.310000",
          "152034.920000",
          "152037.530000",
          "152040.140000",
          "152042.750000",
          "152045.362500",
          "152047.972500",
          "152050.582500",
          "152053.192500",
          "152055.802500",
          "152058.415000",
          "152101.025000",
          "152103.635000",
          "152106.245000",
          "152108.855000",
          "152111.465000",
          "152114.077500",
          "152116.687500",
          "152119.297500",
          "152121.907500",
          "152124.517500",
          "152127.127500"
        ],
        "ContentTime": [
          "151507.921000",
          "151507.921000",
          "151508.906000",
          "151510.906000",
          "151513.421000",
          "151515.921000",
          "151518.921000",
          "151521.421000",
          "151523.921000",
          "151526.421000",
          "151528.921000",
          "151531.921000",
          "151534.421000",
          "151536.921000",
          "151539.421000",
          "151541.921000",
          "151544.921000",
          "151547.421000",
          "151549.921000",
          "151552.421000",
          "151554.921000",
          "151557.921000",
          "151600.406000",
          "151602.921000",
          "151605.421000",
          "151607.921000",
          "151610.921000",
          "151613.421000",
          "151615.921000",
          "151618.421000",
          "151621.421000",
          "151623.921000",
          "151626.421000",
          "151628.921000",
          "151631.421000",
          "151633.921000",
          "151636.921000",
          "151639.421000",
          "151641.921000",
          "151644.421000",
          "151646.921000",
          "151649.921000",
          "151652.421000",
          "151654.921000",
          "151657.406000",
          "151659.906000",
          "151702.906000",
          "151705.421000",
          "151707.921000",
          "151710.421000",
          "151713.421000",
          "151715.921000",
          "151718.421000",
          "151720.921000",
          "151723.421000",
          "151725.921000",
          "151728.921000",
          "151731.421000",
          "151733.921000",
          "151736.421000",
          "151739.421000",
          "151741.921000",
          "151744.421000",
          "151746.921000",
          "151749.421000",
          "151752.421000",
          "151754.906000",
          "151757.406000",
          "151759.906000",
          "151802.421000",
          "151805.421000",
          "151807.921000",
          "151810.421000",
          "151812.921000",
          "151815.421000",
          "151818.421000",
          "151820.921000",
          "151823.421000",
          "151825.921000",
          "151828.421000",
          "151830.921000",
          "151833.921000",
          "151836.421000",
          "151838.921000",
          "151841.421000",
          "151843.921000",
          "151846.921000",
          "151849.421000",
          "151851.906000",
          "151854.406000",
          "151856.906000",
          "151859.921000",
          "151902.421000",
          "151904.921000",
          "151907.421000",
          "151909.921000",
          "151912.921000",
          "151915.421000",
          "151917.921000",
          "151920.421000",
          "151922.921000",
          "151925.921000",
          "151928.406000",
          "151930.921000",
          "151933.421000",
          "151936.421000",
          "151938.921000",
          "151941.421000",
          "151943.921000",
          "151946.421000",
          "151949.421000",
          "151951.906000",
          "151954.421000",
          "151956.921000",
          "151959.421000",
          "152001.921000",
          "152004.921000",
          "152007.421000",
          "152009.921000",
          "152012.421000",
          "152014.921000",
          "152017.906000",
          "152020.421000",
          "152022.921000",
          "152025.421000",
          "152027.921000",
          "152030.921000",
          "152033.421000",
          "152035.921000",
          "152038.421000",
          "152041.421000",
          "152043.921000",
          "152046.421000",
          "152048.906000",
          "152051.421000",
          "152053.921000",
          "152056.921000",
          "152059.421000",
          "152101.921000",
          "152104.421000",
          "152106.921000",
          "152109.921000",
          "152112.421000",
          "152114.921000",
          "152117.421000",
          "152120.421000",
          "152122.921000",
          "152125.421000",
          "152127.921000",
          "152135.281000"
        ],
        "InstanceCreationTime": [
          "151507.921000",
          "151507.921000",
          "151508.906000",
          "151510.906000",
          "151513.421000",
          "151515.921000",
          "151518.921000",
          "151521.421000",
          "151523.921000",
          "151526.421000",
          "151528.921000",
          "151531.921000",
          "151534.421000",
          "151536.921000",
          "151539.421000",
          "151541.921000",
          "151544.921000",
          "151547.421000",
          "151549.921000",
          "151552.421000",
          "151554.921000",
          "151557.921000",
          "151600.406000",
          "151602.921000",
          "151605.421000",
          "151607.921000",
          "151610.921000",
          "151613.421000",
          "151615.921000",
          "151618.421000",
          "151621.421000",
          "151623.921000",
          "151626.421000",
          "151628.921000",
          "151631.421000",
          "151633.921000",
          "151636.921000",
          "151639.421000",
          "151641.921000",
          "151644.421000",
          "151646.921000",
          "151649.921000",
          "151652.421000",
          "151654.921000",
          "151657.406000",
          "151659.906000",
          "151702.906000",
          "151705.421000",
          "151707.921000",
          "151710.421000",
          "151713.421000",
          "151715.921000",
          "151718.421000",
          "151720.921000",
          "151723.421000",
          "151725.921000",
          "151728.921000",
          "151731.421000",
          "151733.921000",
          "151736.421000",
          "151739.421000",
          "151741.921000",
          "151744.421000",
          "151746.921000",
          "151749.421000",
          "151752.421000",
          "151754.906000",
          "151757.406000",
          "151759.906000",
          "151802.421000",
          "151805.421000",
          "151807.921000",
          "151810.421000",
          "151812.921000",
          "151815.421000",
          "151818.421000",
          "151820.921000",
          "151823.421000",
          "151825.921000",
          "151828.421000",
          "151830.921000",
          "151833.921000",
          "151836.421000",
          "151838.921000",
          "151841.421000",
          "151843.921000",
          "151846.921000",
          "151849.421000",
          "151851.906000",
          "151854.406000",
          "151856.906000",
          "151859.921000",
          "151902.421000",
          "151904.921000",
          "151907.421000",
          "151909.921000",
          "151912.921000",
          "151915.421000",
          "151917.921000",
          "151920.421000",
          "151922.921000",
          "151925.921000",
          "151928.406000",
          "151930.921000",
          "151933.421000",
          "151936.421000",
          "151938.921000",
          "151941.421000",
          "151943.921000",
          "151946.421000",
          "151949.421000",
          "151951.906000",
          "151954.421000",
          "151956.921000",
          "151959.421000",
          "152001.921000",
          "152004.921000",
          "152007.421000",
          "152009.921000",
          "152012.421000",
          "152014.921000",
          "152017.906000",
          "152020.421000",
          "152022.921000",
          "152025.421000",
          "152027.921000",
          "152030.921000",
          "152033.421000",
          "152035.921000",
          "152038.421000",
          "152041.421000",
          "152043.921000",
          "152046.421000",
          "152048.906000",
          "152051.421000",
          "152053.921000",
          "152056.921000",
          "152059.421000",
          "152101.921000",
          "152104.421000",
          "152106.921000",
          "152109.921000",
          "152112.421000",
          "152114.921000",
          "152117.421000",
          "152120.421000",
          "152122.921000",
          "152125.421000",
          "152127.921000",
          "152135.281000"
        ],
        "InstanceNumber": [
          1,
          2,
          3,
          4,
          5,
          6,
          7,
          8,
          9,
          10,
          11,
          12,
          13,
          14,
          15,
          16,
          17,
          18,
          19,
          20,
          21,
          22,
          23,
          24,
          25,
          26,
          27,
          28,
          29,
          30,
          31,
          32,
          33,
          34,
          35,
          36,
          37,
          38,
          39,
          40,
          41,
          42,
          43,
          44,
          45,
          46,
          47,
          48,
          49,
          50,
          51,
          52,
          53,
          54,
          55,
          56,
          57,
          58,
          59,
          60,
          61,
          62,
          63,
          64,
          65,
          66,
          67,
          68,
          69,
          70,
          71,
          72,
          73,
          74,
          75,
          76,
          77,
          78,
          79,
          80,
          81,
          82,
          83,
          84,
          85,
          86,
          87,
          88,
          89,
          90,
          91,
          92,
          93,
          94,
          95,
          96,
          97,
          98,
          99,
          100,
          101,
          102,
          103,
          104,
          105,
          106,
          107,
          108,
          109,
          110,
          111,
          112,
          113,
          114,
          115,
          116,
          117,
          118,
          119,
          120,
          121,
          122,
          123,
          124,
          125,
          126,
          127,
          128,
          129,
          130,
          131,
          132,
          133,
          134,
          135,
          136,
          137,
          138,
          139,
          140,
          141,
          142,
          143,
          144,
          145,
          146,
          147,
          148,
          149,
          150
        ],
        "WindowCenter": [
          849.0,
          850.0,
          848.0,
          845.0,
          842.0,
          842.0,
          843.0,
          844.0,
          845.0,
          845.0,
          846.0,
          846.0,
          846.0,
          847.0,
          848.0,
          848.0,
          847.0,
          846.0,
          847.0,
          846.0,
          847.0,
          846.0,
          846.0,
          847.0,
          848.0,
          849.0,
          846.0,
          844.0,
          844.0,
          846.0,
          846.0,
          846.0,
          846.0,
          845.0,
          846.0,
          846.0,
          846.0,
          845.0,
          846.0,
          846.0,
          848.0,
          847.0,
          847.0,
          847.0,
          847.0,
          847.0,
          847.0,
          847.0,
          846.0,
          846.0,
          845.0,
          846.0,
          846.0,
          847.0,
          847.0,
          847.0,
          847.0,
          847.0,
          847.0,
          848.0,
          847.0,
          846.0,
          845.0,
          846.0,
          846.0,
          845.0,
          846.0,
          846.0,
          846.0,
          846.0,
          846.0,
          846.0,
          846.0,
          847.0,
          848.0,
          847.0,
          846.0,
          846.0,
          848.0,
          848.0,
          847.0,
          846.0,
          846.0,
          846.0,
          846.0,
          846.0,
          847.0,
          847.0,
          847.0,
          847.0,
          849.0,
          848.0,
          848.0,
          847.0,
          847.0,
          846.0,
          845.0,
          846.0,
          846.0,
          846.0,
          846.0,
          847.0,
          847.0,
          847.0,
          846.0,
          847.0,
          847.0,
          848.0,
          848.0,
          847.0,
          847.0,
          848.0,
          847.0,
          847.0,
          847.0,
          848.0,
          847.0,
          847.0,
          847.0,
          848.0,
          846.0,
          847.0,
          847.0,
          847.0,
          847.0,
          847.0,
          847.0,
          849.0,
          849.0,
          847.0,
          847.0,
          848.0,
          848.0,
          847.0,
          847.0,
          846.0,
          847.0,
          846.0,
          847.0,
          847.0,
          847.0,
          847.0,
          847.0,
          847.0,
          848.0,
          848.0,
          848.0,
          848.0,
          848.0,
          847.0
        ],
        "WindowWidth": [
          1919.0,
          1922.0,
          1914.0,
          1903.0,
          1894.0,
          1896.0,
          1897.0,
          1900.0,
          1903.0,
          1905.0,
          1907.0,
          1908.0,
          1909.0,
          1911.0,
          1915.0,
          1915.0,
          1912.0,
          1908.0,
          1910.0,
          1910.0,
          1910.0,
          1908.0,
          1907.0,
          1912.0,
          1916.0,
          1920.0,
          1909.0,
          1902.0,
          1900.0,
          1906.0,
          1906.0,
          1908.0,
          1906.0,
          1905.0,
          1906.0,
          1910.0,
          1909.0,
          1906.0,
          1907.0,
          1910.0,
          1914.0,
          1912.0,
          1913.0,
          1913.0,
          1912.0,
          1912.0,
          1911.0,
          1910.0,
          1907.0,
          1906.0,
          1905.0,
          1909.0,
          1908.0,
          1911.0,
          1911.0,
          1911.0,
          1910.0,
          1911.0,
          1911.0,
          1915.0,
          1912.0,
          1909.0,
          1905.0,
          1909.0,
          1906.0,
          1906.0,
          1906.0,
          1907.0,
          1908.0,
          1909.0,
          1910.0,
          1909.0,
          1909.0,
          1910.0,
          1913.0,
          1910.0,
          1907.0,
          1909.0,
          1914.0,
          1916.0,
          1912.0,
          1907.0,
          1907.0,
          1905.0,
          1906.0,
          1907.0,
          1911.0,
          1909.0,
          1910.0,
          1912.0,
          1918.0,
          1914.0,
          1914.0,
          1910.0,
          1911.0,
          1908.0,
          1905.0,
          1909.0,
          1906.0,
          1906.0,
          1907.0,
          1910.0,
          1910.0,
          1911.0,
          1908.0,
          1911.0,
          1911.0,
          1915.0,
          1913.0,
          1909.0,
          1910.0,
          1913.0,
          1910.0,
          1910.0,
          1912.0,
          1913.0,
          1911.0,
          1912.0,
          1912.0,
          1913.0,
          1909.0,
          1910.0,
          1910.0,
          1911.0,
          1910.0,
          1911.0,
          1913.0,
          1917.0,
          1918.0,
          1912.0,
          1910.0,
          1914.0,
          1914.0,
          1912.0,
          1909.0,
          1908.0,
          1910.0,
          1908.0,
          1909.0,
          1910.0,
          1911.0,
          1911.0,
          1911.0,
          1912.0,
          1914.0,
          1914.0,
          1914.0,
          1913.0,
          1913.0,
          1911.0
        ]
      },
      "slices": {}
    }
  },
  "dummy_trs": 0,
  "dvars_nstd": 75.63543859912748,
  "dvars_std": 1.0816388275167785,
  "dvars_vstd": 1.0185435229530202,
  "efc": 0.5732016370075642,
  "fber": 345.2019958496094,
  "fd_mean": 0.0490361091480343,
  "fd_num": 4,
  "fd_perc": 2.6666666666666665,
  "fwhm_avg": 2.868572564427699,
  "fwhm_x": 2.7763218196445885,
  "fwhm_y": 2.8495323018616756,
  "fwhm_z": 2.979863571776833,
  "gcor": 0.00284786,
  "gsr_x": -0.00015640594938304275,
  "gsr_y": 0.045234180986881256,
  "provenance": {
    "md5sum": "d453fde062beb81733ddcffaafb8b9e6",
    "settings": {
      "fd_thres": 0.2,
      "testing": false
    },
    "software": "mriqc",
    "version": "23.0.1",
    "webapi_port": null,
    "webapi_url": "https://mriqc.nimh.nih.gov/api/v1"
  },
  "size_t": 150,
  "size_x": 188,
  "size_y": 188,
  "size_z": 46,
  "snr": 2.521252200732541,
  "spacing_tr": 2.5999999046325684,
  "spacing_x": 1.0957447290420532,
  "spacing_y": 1.0957447290420532,
  "spacing_z": 1.100000023841858,
  "summary_bg_k": 54.75006564772238,
  "summary_bg_mad": 23.593144133318678,
  "summary_bg_mean": 86.38175201416016,
  "summary_bg_median": 49.43333435058594,
  "summary_bg_n": 1061558.0,
  "summary_bg_p05": 31.46000099182129,
  "summary_bg_p95": 256.40767517089785,
