{
  "aor": 0.0008206,
  "aqi": 0.013003651333333333,
  "bids_meta": {
    "AcquisitionMatrixPE": 188,
    "AcquisitionNumber": 1,
    "AcquisitionTime": "16:03:19.202500",
    "BandwidthPerPixelPhaseEncode": 19.46,
    "BaseResolution": 188,
    "ConversionSoftware": "dcm2niix",
    "ConversionSoftwareVersion": "v1.0.20180606 GCC4.8.5",
    "DelayTime": 1.2,
    "DerivedVendorReportedEchoSpacing": 0.000820013,
    "DeviceSerialNumber": "18930",
    "DwellTime": 1.9e-06,
    "EchoTime": 0.02,
    "EffectiveEchoSpacing": 0.000273338,
    "FlipAngle": 80,
    "ImageComments": "Unaliased_MB2_PE2",
    "ImageOrientationPatientDICOM": [
      0.997694,
      0.0552999,
      -0.0393616,
      -0.0469247,
      0.142908,
      -0.988623
    ],
    "ImageType": [
      "ORIGINAL",
      "PRIMARY",
      "M",
      "MB",
      "ND",
      "MOSAIC"
    ],
    "InPlanePhaseEncodingDirectionDICOM": "COL",
    "InstitutionAddress": "Oxfordlaan_55_Maastricht_753AAF_Limburg_NL_6229_EV",
    "InstitutionName": "Scannexus",
    "InstitutionalDepartmentName": "MRI_7T",
    "MRAcquisitionType": "2D",
    "MagneticFieldStrength": 6.98,
    "Manufacturer": "Siemens",
    "ManufacturersModelName": "Investigational_Device_7T",
    "Modality": "MR",
    "MultibandAccelerationFactor": 2,
    "ParallelReductionFactorInPlane": 3,
    "PartialFourier": 0.75,
    "PatientPosition": "HFS",
    "PercentPhaseFOV": 100,
    "PhaseEncodingDirection": "j",
    "PhaseEncodingSteps": 141,
    "PhaseResolution": 1,
    "PixelBandwidth": 1400,
    "ProcedureStepDescription": "FeDem_Faruk",
    "ProtocolName": "cmrr_mbep2d_bold_AP_run10",
    "PulseSequenceDetails": "%CustomerSeq%_cmrr_mbep2d_bold",
    "ReceiveCoilName": "32Ch_Head_7T",
    "ReconMatrixPE": 188,
    "RepetitionTime": 2.6,
    "SAR": 0.0585111,
    "ScanOptions": "PFP_FS",
    "ScanningSequence": "EP",
    "SequenceName": "epfid2d1_188",
    "SequenceVariant": "SK_SS",
    "SeriesDescription": "cmrr_mbep2d_bold_AP_run10",
    "SeriesNumber": 23,
    "ShimSetting": [
      74,
      22,
      526,
      331,
      -94,
      30,
      178,
      188
    ],
    "SliceThickness": 1.1,
    "SliceTiming": [
      0,
      0.7325,
      0.06,
      0.7925,
      0.1225,
      0.855,
      0.1825,
      0.915,
      0.2425,
      0.9775,
      0.305,
      1.0375,
      0.365,
      1.1,
      0.4275,
      1.16,
      0.4875,
      1.22,
      0.55,
      1.2825,
      0.61,
      1.3425,
      0.67,
      0,
      0.7325,
      0.06,
      0.7925,
      0.1225,
      0.855,
      0.1825,
      0.915,
      0.2425,
      0.9775,
      0.305,
      1.0375,
      0.365,
      1.1,
      0.4275,
      1.16,
      0.4875,
      1.22,
      0.55,
      1.2825,
      0.61,
      1.3425,
      0.67
    ],
    "SoftwareVersions": "syngo_MR_B17",
    "SpacingBetweenSlices": 1.1,
    "StationName": "MRC18930",
    "TaskName": "auditory",
    "TotalReadoutTime": 0.0511141,
    "TxRefAmp": 210,
    "dataset": "ds001942",
    "dcmmeta_affine": [
      [
        -1.0932174921035767,
        -0.051417529582977295,
        0.053950224071741104,
        101.08625793457031
      ],
      [
        -0.06059454008936882,
        0.1565903127193451,
        -1.0870089530944824,
        41.250267028808594
      ],
      [
        -0.043130211532115936,
        1.0832784175872803,
        0.15969029068946838,
        -112.83697509765625
      ],
      [
        0.0,
        0.0,
        0.0,
        1.0
      ]
    ],
    "dcmmeta_reorient_transform": [
      [
        0.0,
        -1.0,
        0.0,
        187.0
      ],
      [
        1.0,
        0.0,
        0.0,
        0.0
      ],
      [
        0.0,
        0.0,
        1.0,
        0.0
      ],
      [
        0.0,
        0.0,
        0.0,
        1.0
      ]
    ],
    "dcmmeta_shape": [
      188,
      188,
      46,
      150
    ],
    "dcmmeta_slice_dim": 2,
    "dcmmeta_version": 0.6,
    "global": {
      "const": {
        "AcquisitionMatrix": [
          188,
          0,
          0,
          188
        ],
        "AngioFlag": "N",
        "BitsAllocated": 16,
        "BitsStored": 12,
        "Columns": 1316,
        "EchoNumbers": 1,
        "EchoTime": 20.0,
        "EchoTrainLength": 1,
        "FlipAngle": 80.0,
        "HighBit": 11,
        "ImageOrientationPatient": [
          0.99769363669209,
          0.05529987056619,
          -0.0393615500135,
          -0.0469247344932,
          0.14290765139171,
          -0.9886230183778
        ],
        "ImagePositionPatient": [
          -679.04638794689,
          -193.02490866948,
          725.0305860642
        ],
        "ImageType": [
          "ORIGINAL",
          "PRIMARY",
          "M",
          "MB",
          "ND",
          "MOSAIC"
        ],
        "ImagedNucleus": "1H",
        "ImagingFrequency": 297.205646,
        "InPlanePhaseEncodingDirection": "COL",
        "LargestImagePixelValue": 4095,
        "MRAcquisitionType": "2D",
        "MagneticFieldStrength": 6.98,
        "Manufacturer": "SIEMENS",
        "ManufacturerModelName": "Investigational_Device_7T",
        "Modality": "MR",
        "NumberOfAverages": 1.0,
        "NumberOfPhaseEncodingSteps": 141,
        "PercentPhaseFieldOfView": 100.0,
        "PercentSampling": 100.0,
        "PerformedProcedureStepStartTime": "142439.593000",
        "PhotometricInterpretation": "MONOCHROME2",
        "PixelBandwidth": 1400.0,
        "PixelRepresentation": 0,
        "PixelSpacing": [
          1.0957447290421,
          1.0957447290421
        ],
        "ProtocolName": "cmrr_mbep2d_bold_AP_run10",
        "RepetitionTime": 2600.0,
        "Rows": 1316,
        "SAR": 0.0585111140858,
        "SamplesPerPixel": 1,
        "ScanOptions": [
          "PFP",
          "FS"
        ],
        "ScanningSequence": "EP",
        "SequenceName": "epfid2d1_188",
        "SequenceVariant": [
          "SK",
          "SS"
        ],
        "SeriesDescription": "cmrr_mbep2d_bold_AP_run10",
        "SeriesNumber": 23,
        "SeriesTime": "160328.859000",
        "SliceLocation": -52.186137634346,
        "SliceThickness": 1.1000000238419,
        "SmallestImagePixelValue": 0,
        "SoftwareVersions": "syngo MR B17",
        "SpacingBetweenSlices": 1.1000000019064,
        "SpecificCharacterSet": "ISO_IR 100",
        "StudyID": "1",
        "StudyTime": "142439.546000",
        "TransmitCoilName": "32Ch_Head_7T",
        "VariableFlipAngleFlag": "N",
        "WindowCenterWidthExplanation": "Algo1",
        "dBdt": 0.0
      },
      "slices": {}
    },
    "modality": "bold",
    "run_id": 10,
    "session_id": "SES03",
    "subject_id": "S07",
    "task_id": "auditory",
    "time": {
      "samples": {
        "AcquisitionNumber": [
          1,
          2,
          3,
          4,
          5,
          6,
          7,
          8,
          9,
          10,
          11,
          12,
          13,
          14,
          15,
          16,
          17,
          18,
          19,
          20,
          21,
          22,
          23,
          24,
          25,
          26,
          27,
          28,
          29,
          30,
          31,
          32,
          33,
          34,
          35,
          36,
          37,
          38,
          39,
          40,
          41,
          42,
          43,
          44,
          45,
          46,
          47,
          48,
          49,
          50,
          51,
          52,
          53,
          54,
          55,
          56,
          57,
          58,
          59,
          60,
          61,
          62,
          63,
          64,
          65,
          66,
          67,
          68,
          69,
          70,
          71,
          72,
          73,
          74,
          75,
          76,
          77,
          78,
          79,
          80,
          81,
          82,
          83,
          84,
          85,
          86,
          87,
          88,
          89,
          90,
          91,
          92,
          93,
          94,
          95,
          96,
          97,
          98,
          99,
          100,
          101,
          102,
          103,
          104,
          105,
          106,
          107,
          108,
          109,
          110,
          111,
          112,
          113,
          114,
          115,
          116,
          117,
          118,
          119,
          120,
          121,
          122,
          123,
          124,
          125,
          126,
          127,
          128,
          129,
          130,
          131,
          132,
          133,
          134,
          135,
          136,
          137,
          138,
          139,
          140,
          141,
          142,
          143,
          144,
          145,
          146,
          147,
          148,
          149,
          150
        ],
        "AcquisitionTime": [
          "160319.202500",
          "160321.812500",
          "160324.422500",
          "160327.032500",
          "160329.642500",
          "160332.255000",
          "160334.865000",
          "160337.475000",
          "160340.085000",
          "160342.695000",
          "160345.305000",
          "160347.917500",
          "160350.527500",
          "160353.137500",
          "160355.747500",
          "160358.357500",
          "160400.967500",
          "160403.580000",
          "160406.190000",
          "160408.800000",
          "160411.410000",
          "160414.020000",
          "160416.632500",
          "160419.242500",
          "160421.852500",
          "160424.462500",
          "160427.072500",
          "160429.682500",
          "160432.295000",
          "160434.905000",
          "160437.515000",
          "160440.125000",
          "160442.735000",
          "160445.345000",
          "160447.957500",
          "160450.567500",
          "160453.177500",
          "160455.787500",
          "160458.397500",
          "160501.010000",
          "160503.620000",
          "160506.230000",
          "160508.840000",
          "160511.450000",
          "160514.060000",
          "160516.672500",
          "160519.282500",
          "160521.892500",
          "160524.502500",
          "160527.112500",
          "160529.722500",
          "160532.335000",
          "160534.945000",
          "160537.555000",
          "160540.165000",
          "160542.775000",
          "160545.387500",
          "160547.997500",
          "160550.607500",
          "160553.217500",
          "160555.827500",
          "160558.437500",
          "160601.050000",
          "160603.660000",
          "160606.270000",
          "160608.880000",
          "160611.490000",
          "160614.100000",
          "160616.712500",
          "160619.322500",
          "160621.932500",
          "160624.542500",
          "160627.152500",
          "160629.765000",
          "160632.375000",
          "160634.985000",
          "160637.595000",
          "160640.205000",
          "160642.815000",
          "160645.427500",
          "160648.037500",
          "160650.647500",
          "160653.257500",
          "160655.867500",
          "160658.477500",
          "160701.090000",
          "160703.700000",
          "160706.310000",
          "160708.920000",
          "160711.530000",
          "160714.142500",
          "160716.752500",
          "160719.362500",
          "160721.972500",
          "160724.582500",
          "160727.192500",
          "160729.805000",
          "160732.415000",
          "160735.025000",
          "160737.635000",
          "160740.245000",
          "160742.855000",
          "160745.467500",
          "160748.077500",
          "160750.687500",
          "160753.297500",
          "160755.907500",
          "160758.520000",
          "160801.130000",
          "160803.740000",
          "160806.350000",
          "160808.960000",
          "160811.570000",
          "160814.182500",
          "160816.792500",
          "160819.402500",
          "160822.012500",
          "160824.622500",
          "160827.232500",
          "160829.845000",
          "160832.455000",
          "160835.065000",
          "160837.675000",
          "160840.285000",
          "160842.897500",
          "160845.507500",
          "160848.117500",
          "160850.727500",
          "160853.337500",
          "160855.947500",
          "160858.560000",
          "160901.170000",
          "160903.780000",
          "160906.390000",
          "160909.000000",
          "160911.610000",
          "160914.222500",
          "160916.832500",
          "160919.442500",
          "160922.052500",
          "160924.662500",
          "160927.275000",
          "160929.885000",
          "160932.495000",
          "160935.105000",
          "160937.715000",
          "160940.325000",
          "160942.937500",
          "160945.547500",
          "160948.157500"
        ],
        "ContentTime": [
          "160328.859000",
          "160329.359000",
          "160329.859000",
          "160332.359000",
          "160334.859000",
          "160337.859000",
          "160340.359000",
          "160342.859000",
          "160345.359000",
          "160347.859000",
          "160350.859000",
          "160353.359000",
          "160355.859000",
          "160358.359000",
          "160400.859000",
          "160403.359000",
          "160406.359000",
          "160408.859000",
          "160411.359000",
          "160413.859000",
          "160416.859000",
          "160419.359000",
          "160421.859000",
          "160424.359000",
          "160426.859000",
          "160429.859000",
          "160432.359000",
          "160434.859000",
          "160437.359000",
          "160439.859000",
          "160442.359000",
          "160445.359000",
          "160447.859000",
          "160450.359000",
          "160452.859000",
          "160455.859000",
          "160458.359000",
          "160500.859000",
          "160503.359000",
          "160505.859000",
          "160508.859000",
          "160511.359000",
          "160513.859000",
          "160516.359000",
          "160518.859000",
          "160521.359000",
          "160524.359000",
          "160526.859000",
          "160529.359000",
          "160531.859000",
          "160534.859000",
          "160537.359000",
          "160539.859000",
          "160542.359000",
          "160544.859000",
          "160547.859000",
          "160550.359000",
          "160552.859000",
          "160555.359000",
          "160557.859000",
          "160600.359000",
          "160603.359000",
          "160605.859000",
          "160608.359000",
          "160610.859000",
          "160613.859000",
          "160616.359000",
          "160618.859000",
          "160621.359000",
          "160623.859000",
          "160626.859000",
          "160629.359000",
          "160631.859000",
          "160634.359000",
          "160636.859000",
          "160639.859000",
          "160642.359000",
          "160644.859000",
          "160647.359000",
          "160649.859000",
          "160652.859000",
          "160655.359000",
          "160657.859000",
          "160700.359000",
          "160702.859000",
          "160705.359000",
          "160708.359000",
          "160710.859000",
          "160713.359000",
          "160715.859000",
          "160718.859000",
          "160721.359000",
          "160723.859000",
          "160726.359000",
          "160728.859000",
          "160731.359000",
          "160734.359000",
          "160736.859000",
          "160739.359000",
          "160741.859000",
          "160744.859000",
          "160747.359000",
          "160749.859000",
          "160752.359000",
          "160754.859000",
          "160757.359000",
          "160800.359000",
          "160802.859000",
          "160805.359000",
          "160807.859000",
          "160810.859000",
          "160813.359000",
          "160815.859000",
          "160818.359000",
          "160820.859000",
          "160823.859000",
          "160826.359000",
          "160828.859000",
          "160831.359000",
          "160833.859000",
          "160836.859000",
          "160839.359000",
          "160841.859000",
          "160844.359000",
          "160846.859000",
          "160849.359000",
          "160852.359000",
          "160854.859000",
          "160857.359000",
          "160859.859000",
          "160902.359000",
          "160905.359000",
          "160907.859000",
          "160910.359000",
          "160912.859000",
          "160915.859000",
          "160918.359000",
          "160920.859000",
          "160923.359000",
          "160925.859000",
          "160928.859000",
          "160931.359000",
          "160933.859000",
          "160936.359000",
          "160938.859000",
          "160941.359000",
          "160944.359000",
          "160946.859000",
          "160949.359000",
          "160956.734000"
        ],
        "InstanceCreationTime": [
          "160328.859000",
          "160329.359000",
          "160329.859000",
          "160332.359000",
          "160334.859000",
          "160337.859000",
          "160340.359000",
          "160342.859000",
          "160345.359000",
          "160347.859000",
          "160350.859000",
          "160353.359000",
          "160355.859000",
          "160358.359000",
          "160400.859000",
          "160403.359000",
          "160406.359000",
          "160408.859000",
          "160411.359000",
          "160413.859000",
          "160416.859000",
          "160419.359000",
          "160421.859000",
          "160424.359000",
          "160426.859000",
          "160429.859000",
          "160432.359000",
          "160434.859000",
          "160437.359000",
          "160439.859000",
          "160442.359000",
          "160445.359000",
          "160447.859000",
          "160450.359000",
          "160452.859000",
          "160455.859000",
          "160458.359000",
          "160500.859000",
          "160503.359000",
          "160505.859000",
          "160508.859000",
          "160511.359000",
          "160513.859000",
          "160516.359000",
          "160518.859000",
          "160521.359000",
          "160524.359000",
          "160526.859000",
          "160529.359000",
          "160531.859000",
          "160534.859000",
          "160537.359000",
          "160539.859000",
          "160542.359000",
          "160544.859000",
          "160547.859000",
          "160550.359000",
          "160552.859000",
          "160555.359000",
          "160557.859000",
          "160600.359000",
          "160603.359000",
          "160605.859000",
          "160608.359000",
          "160610.859000",
          "160613.859000",
          "160616.359000",
          "160618.859000",
          "160621.359000",
          "160623.859000",
          "160626.859000",
          "160629.359000",
          "160631.859000",
          "160634.359000",
          "160636.859000",
          "160639.859000",
          "160642.359000",
          "160644.859000",
          "160647.359000",
          "160649.859000",
          "160652.859000",
          "160655.359000",
          "160657.859000",
          "160700.359000",
          "160702.859000",
          "160705.359000",
          "160708.359000",
          "160710.859000",
          "160713.359000",
          "160715.859000",
          "160718.859000",
          "160721.359000",
          "160723.859000",
          "160726.359000",
          "160728.859000",
          "160731.359000",
          "160734.359000",
          "160736.859000",
          "160739.359000",
          "160741.859000",
          "160744.859000",
          "160747.359000",
          "160749.859000",
          "160752.359000",
          "160754.859000",
          "160757.359000",
          "160800.359000",
          "160802.859000",
          "160805.359000",
          "160807.859000",
          "160810.859000",
          "160813.359000",
          "160815.859000",
          "160818.359000",
          "160820.859000",
          "160823.859000",
          "160826.359000",
          "160828.859000",
          "160831.359000",
          "160833.859000",
          "160836.859000",
          "160839.359000",
          "160841.859000",
          "160844.359000",
          "160846.859000",
          "160849.359000",
          "160852.359000",
          "160854.859000",
          "160857.359000",
          "160859.859000",
          "160902.359000",
          "160905.359000",
          "160907.859000",
          "160910.359000",
          "160912.859000",
          "160915.859000",
          "160918.359000",
          "160920.859000",
          "160923.359000",
          "160925.859000",
          "160928.859000",
          "160931.359000",
          "160933.859000",
          "160936.359000",
          "160938.859000",
          "160941.359000",
          "160944.359000",
          "160946.859000",
          "160949.359000",
          "160956.734000"
        ],
        "InstanceNumber": [
          1,
          2,
          3,
          4,
          5,
          6,
          7,
          8,
          9,
          10,
          11,
          12,
          13,
          14,
          15,
          16,
          17,
          18,
          19,
          20,
          21,
          22,
          23,
          24,
          25,
          26,
          27,
          28,
          29,
          30,
          31,
          32,
          33,
          34,
          35,
          36,
          37,
          38,
          39,
          40,
          41,
          42,
          43,
          44,
          45,
          46,
          47,
          48,
          49,
          50,
          51,
          52,
          53,
          54,
          55,
          56,
          57,
          58,
          59,
          60,
          61,
          62,
          63,
          64,
          65,
          66,
          67,
          68,
          69,
          70,
          71,
          72,
          73,
          74,
          75,
          76,
          77,
          78,
          79,
          80,
          81,
          82,
          83,
          84,
          85,
          86,
          87,
          88,
          89,
          90,
          91,
          92,
          93,
          94,
          95,
          96,
          97,
          98,
          99,
          100,
          101,
          102,
          103,
          104,
          105,
          106,
          107,
          108,
          109,
          110,
          111,
          112,
          113,
          114,
          115,
          116,
          117,
          118,
          119,
          120,
          121,
          122,
          123,
          124,
          125,
          126,
          127,
          128,
          129,
          130,
          131,
          132,
          133,
          134,
          135,
          136,
          137,
          138,
          139,
          140,
          141,
          142,
          143,
          144,
          145,
          146,
          147,
          148,
          149,
          150
        ],
        "WindowCenter": [
          858.0,
          858.0,
          860.0,
          856.0,
          854.0,
          854.0,
          855.0,
          856.0,
          856.0,
          856.0,
          856.0,
          856.0,
          856.0,
          856.0,
          857.0,
          857.0,
          857.0,
          856.0,
          856.0,
          857.0,
          857.0,
          857.0,
          856.0,
          856.0,
          856.0,
          855.0,
          856.0,
          856.0,
          855.0,
          855.0,
          856.0,
          857.0,
          857.0,
          857.0,
          856.0,
          856.0,
          857.0,
          857.0,
          857.0,
          858.0,
          857.0,
          857.0,
          857.0,
          857.0,
          856.0,
          857.0,
          856.0,
          857.0,
          856.0,
          857.0,
          856.0,
          857.0,
          857.0,
          856.0,
          857.0,
          857.0,
          857.0,
          857.0,
          857.0,
          856.0,
          857.0,
          857.0,
          857.0,
          856.0,
          857.0,
          857.0,
          857.0,
          857.0,
          856.0,
          857.0,
          856.0,
          856.0,
          855.0,
          856.0,
          857.0,
          857.0,
          857.0,
          857.0,
          857.0,
          857.0,
          859.0,
          858.0,
          857.0,
          857.0,
          857.0,
          857.0,
          857.0,
          857.0,
          856.0,
          856.0,
          856.0,
          857.0,
          856.0,
          857.0,
          857.0,
          856.0,
          857.0,
          858.0,
          857.0,
          856.0,
          860.0,
          858.0,
          856.0,
          856.0,
          856.0,
          857.0,
          857.0,
          857.0,
          857.0,
          856.0,
          856.0,
          857.0,
          857.0,
          856.0,
          856.0,
          856.0,
          857.0,
          858.0,
          858.0,
          857.0,
          857.0,
          857.0,
          856.0,
          858.0,
          859.0,
          856.0,
          856.0,
          856.0,
          857.0,
          857.0,
          858.0,
          857.0,
          858.0,
          857.0,
          857.0,
          857.0,
          858.0,
          857.0,
          856.0,
          856.0,
          856.0,
          857.0,
          856.0,
          857.0,
          857.0,
          856.0,
          856.0,
          857.0,
          856.0,
          857.0
        ],
        "WindowWidth": [
          1946.0,
          1948.0,
          1951.0,
          1937.0,
          1931.0,
          1933.0,
          1934.0,
          1938.0,
          1938.0,
          1940.0,
          1938.0,
          1939.0,
          1939.0,
          1938.0,
          1941.0,
          1940.0,
          1940.0,
          1939.0,
          1939.0,
          1941.0,
          1942.0,
          1939.0,
          1938.0,
          1938.0,
          1937.0,
          1936.0,
          1938.0,
          1936.0,
          1935.0,
          1936.0,
          1939.0,
          1940.0,
          1940.0,
          1940.0,
          1938.0,
          1940.0,
          1941.0,
          1943.0,
          1941.0,
          1943.0,
          1942.0,
          1941.0,
          1941.0,
          1941.0,
          1939.0,
          1940.0,
          1937.0,
          1940.0,
          1937.0,
          1940.0,
          1939.0,
          1942.0,
          1942.0,
          1938.0,
          1941.0,
          1942.0,
          1942.0,
          1940.0,
          1939.0,
          1937.0,
          1942.0,
          1941.0,
          1941.0,
          1938.0,
          1939.0,
          1941.0,
          1942.0,
          1941.0,
          1939.0,
          1939.0,
          1939.0,
          1936.0,
          1934.0,
          1937.0,
          1942.0,
          1941.0,
          1942.0,
          1940.0,
          1942.0,
          1944.0,
          1950.0,
          1945.0,
          1942.0,
          1941.0,
          1942.0,
          1941.0,
          1940.0,
          1942.0,
          1938.0,
          1937.0,
          1939.0,
          1941.0,
          1938.0,
          1941.0,
          1940.0,
          1940.0,
          1942.0,
          1943.0,
          1942.0,
          1941.0,
          1952.0,
          1945.0,
          1938.0,
          1939.0,
          1940.0,
          1942.0,
          1941.0,
          1940.0,
          1941.0,
          1939.0,
          1939.0,
          1941.0,
          1942.0,
          1939.0,
          1940.0,
          1938.0,
          1943.0,
          1944.0,
          1944.0,
          1943.0,
          1942.0,
          1941.0,
          1938.0,
          1947.0,
          1951.0,
          1938.0,
          1939.0,
          1939.0,
          1941.0,
          1942.0,
          1944.0,
          1944.0,
          1944.0,
          1942.0,
          1943.0,
          1941.0,
          1945.0,
          1942.0,
          1937.0,
          1938.0,
          1940.0,
          1940.0,
          1939.0,
          1942.0,
          1943.0,
          1938.0,
          1940.0,
          1941.0,
          1940.0,
          1942.0
        ]
      },
      "slices": {}
    }
  },
  "dummy_trs": 0,
  "dvars_nstd": 75.12973217033559,
  "dvars_std": 1.0810099771140942,
  "dvars_vstd": 1.0226274406040268,
  "efc": 0.573684039226028,
  "fber": 333.7355041503906,
  "fd_mean": 0.0402607079505413,
  "fd_num": 3,
  "fd_perc": 2.0,
  "fwhm_avg": 2.8985628899457976,
  "fwhm_x": 2.8033536631159186,
  "fwhm_y": 2.876098708460272,
  "fwhm_z": 3.0162362982612025,
  "gcor": 0.00164833,
  "gsr_x": 0.002082740655168891,
  "gsr_y": 0.04639338329434395,
  "provenance": {
    "md5sum": "a124900ba103665e249500a55076aec5",
    "settings": {
      "fd_thres": 0.2,
      "testing": false
    },
    "software": "mriqc",
    "version": "23.0.1",
    "webapi_port": null,
    "webapi_url": "https://mriqc.nimh.nih.gov/api/v1"
  },
  "size_t": 150,
  "size_x": 188,
  "size_y": 188,
  "size_z": 46,
  "snr": 2.456807050789005,
  "spacing_tr": 2.5999999046325684,
  "spacing_x": 1.0957447290420532,
  "spacing_y": 1.0957447290420532,
  "spacing_z": 1.100000023841858,
  "summary_bg_k": 52.93180689754456,
  "summary_bg_mad": 24.95713545961809,
  "summary_bg_mean": 90.76937103271484,
  "summary_bg_median": 50.9466667175293,
  "summary_bg_n": 1061317.0,
  "summary_bg_p05": 32.0533332824707,
  "summary_bg_p95": 274.57467041015593,
  "summary_bg_stdv": 125.2895736694336,
