{
  "aor": 0.0007505369127516777,
  "aqi": 0.013190642953020134,
  "bids_meta": {
    "AcquisitionMatrixPE": 188,
    "AcquisitionNumber": 1,
    "AcquisitionTime": "15:55:48.172500",
    "BandwidthPerPixelPhaseEncode": 19.46,
    "BaseResolution": 188,
    "CogAtlasID": "TODO",
    "ConversionSoftware": "dcm2niix",
    "ConversionSoftwareVersion": "v1.0.20180606 GCC4.8.5",
    "DelayTime": 1.2,
    "DerivedVendorReportedEchoSpacing": 0.000820013,
    "DeviceSerialNumber": "18930",
    "DwellTime": 1.9e-06,
    "EchoTime": 0.02,
    "EffectiveEchoSpacing": 0.000273338,
    "FlipAngle": 80,
    "ImageComments": "Unaliased_MB2_PE2",
    "ImageOrientationPatientDICOM": [
      0.997694,
      0.0552999,
      -0.0393616,
      -0.0469247,
      0.142908,
      -0.988623
    ],
    "ImageType": [
      "ORIGINAL",
      "PRIMARY",
      "M",
      "MB",
      "ND",
      "MOSAIC"
    ],
    "InPlanePhaseEncodingDirectionDICOM": "COL",
    "InstitutionAddress": "Oxfordlaan_55_Maastricht_753AAF_Limburg_NL_6229_EV",
    "InstitutionName": "Scannexus",
    "InstitutionalDepartmentName": "MRI_7T",
    "MRAcquisitionType": "2D",
    "MagneticFieldStrength": 6.98,
    "Manufacturer": "Siemens",
    "ManufacturersModelName": "Investigational_Device_7T",
    "Modality": "MR",
    "MultibandAccelerationFactor": 2,
    "ParallelReductionFactorInPlane": 3,
    "PartialFourier": 0.75,
    "PatientPosition": "HFS",
    "PercentPhaseFOV": 100,
    "PhaseEncodingDirection": "j",
    "PhaseEncodingSteps": 141,
    "PhaseResolution": 1,
    "PixelBandwidth": 1400,
    "ProcedureStepDescription": "FeDem_Faruk",
    "ProtocolName": "cmrr_mbep2d_bold_AP_run9",
    "PulseSequenceDetails": "%CustomerSeq%_cmrr_mbep2d_bold",
    "ReceiveCoilName": "32Ch_Head_7T",
    "ReconMatrixPE": 188,
    "RepetitionTime": 2.6,
    "SAR": 0.0584902,
    "ScanOptions": "PFP_FS",
    "ScanningSequence": "EP",
    "SequenceName": "epfid2d1_188",
    "SequenceVariant": "SK_SS",
    "SeriesDescription": "cmrr_mbep2d_bold_AP_run9",
    "SeriesNumber": 22,
    "ShimSetting": [
      74,
      22,
      526,
      331,
      -94,
      30,
      178,
      188
    ],
    "SliceThickness": 1.1,
    "SliceTiming": [
      0,
      0.7325,
      0.06,
      0.795,
      0.1225,
      0.855,
      0.1825,
      0.915,
      0.245,
      0.9775,
      0.305,
      1.0375,
      0.3675,
      1.1,
      0.4275,
      1.16,
      0.4875,
      1.2225,
      0.55,
      1.2825,
      0.61,
      1.345,
      0.6725,
      0,
      0.7325,
      0.06,
      0.795,
      0.1225,
      0.855,
      0.1825,
      0.915,
      0.245,
      0.9775,
      0.305,
      1.0375,
      0.3675,
      1.1,
      0.4275,
      1.16,
      0.4875,
      1.2225,
      0.55,
      1.2825,
      0.61,
      1.345,
      0.6725
    ],
    "SoftwareVersions": "syngo_MR_B17",
    "SpacingBetweenSlices": 1.1,
    "StationName": "MRC18930",
    "TaskName": "auditory",
    "TotalReadoutTime": 0.0511141,
    "TxRefAmp": 210,
    "dataset": "ds001942",
    "dcmmeta_affine": [
      [
        -1.0932174921035767,
        -0.051417529582977295,
        0.053950224071741104,
        101.08625793457031
      ],
      [
        -0.06059454008936882,
        0.1565903127193451,
        -1.0870089530944824,
        41.250267028808594
      ],
      [
        -0.043130211532115936,
        1.0832784175872803,
        0.15969029068946838,
        -112.83697509765625
      ],
      [
        0.0,
        0.0,
        0.0,
        1.0
      ]
    ],
    "dcmmeta_reorient_transform": [
      [
        0.0,
        -1.0,
        0.0,
        187.0
      ],
      [
        1.0,
        0.0,
        0.0,
        0.0
      ],
      [
        0.0,
        0.0,
        1.0,
        0.0
      ],
      [
        0.0,
        0.0,
        0.0,
        1.0
      ]
    ],
    "dcmmeta_shape": [
      188,
      188,
      46,
      150
    ],
    "dcmmeta_slice_dim": 2,
    "dcmmeta_version": 0.6,
    "global": {
      "const": {
        "AcquisitionMatrix": [
          188,
          0,
          0,
          188
        ],
        "AngioFlag": "N",
        "BitsAllocated": 16,
        "BitsStored": 12,
        "Columns": 1316,
        "EchoNumbers": 1,
        "EchoTime": 20.0,
        "EchoTrainLength": 1,
        "FlipAngle": 80.0,
        "HighBit": 11,
        "ImageOrientationPatient": [
          0.99769363669209,
          0.05529987056619,
          -0.0393615500135,
          -0.0469247344932,
          0.14290765139171,
          -0.9886230183778
        ],
        "ImagePositionPatient": [
          -679.04638794689,
          -193.02490866948,
          725.0305860642
        ],
        "ImageType": [
          "ORIGINAL",
          "PRIMARY",
          "M",
          "MB",
          "ND",
          "MOSAIC"
        ],
        "ImagedNucleus": "1H",
        "ImagingFrequency": 297.205646,
        "InPlanePhaseEncodingDirection": "COL",
        "LargestImagePixelValue": 4095,
        "MRAcquisitionType": "2D",
        "MagneticFieldStrength": 6.98,
        "Manufacturer": "SIEMENS",
        "ManufacturerModelName": "Investigational_Device_7T",
        "Modality": "MR",
        "NumberOfAverages": 1.0,
        "NumberOfPhaseEncodingSteps": 141,
        "PercentPhaseFieldOfView": 100.0,
        "PercentSampling": 100.0,
        "PerformedProcedureStepStartTime": "142439.593000",
        "PhotometricInterpretation": "MONOCHROME2",
        "PixelBandwidth": 1400.0,
        "PixelRepresentation": 0,
        "PixelSpacing": [
          1.0957447290421,
          1.0957447290421
        ],
        "ProtocolName": "cmrr_mbep2d_bold_AP_run9",
        "RepetitionTime": 2600.0,
        "Rows": 1316,
        "SAR": 0.05849020418624,
        "SamplesPerPixel": 1,
        "ScanOptions": [
          "PFP",
          "FS"
        ],
        "ScanningSequence": "EP",
        "SequenceName": "epfid2d1_188",
        "SequenceVariant": [
          "SK",
          "SS"
        ],
        "SeriesDescription": "cmrr_mbep2d_bold_AP_run9",
        "SeriesNumber": 22,
        "SeriesTime": "155557.203000",
        "SliceLocation": -52.186137634346,
        "SliceThickness": 1.1000000238419,
        "SmallestImagePixelValue": 0,
        "SoftwareVersions": "syngo MR B17",
        "SpacingBetweenSlices": 1.1000000019064,
        "SpecificCharacterSet": "ISO_IR 100",
        "StudyID": "1",
        "StudyTime": "142439.546000",
        "TransmitCoilName": "32Ch_Head_7T",
        "VariableFlipAngleFlag": "N",
        "WindowCenterWidthExplanation": "Algo1",
        "dBdt": 0.0
      },
      "slices": {}
    },
    "modality": "bold",
    "run_id": 9,
    "session_id": "SES03",
    "subject_id": "S07",
    "task_id": "auditory",
    "time": {
      "samples": {
        "AcquisitionNumber": [
          1,
          2,
          3,
          4,
          5,
          6,
          7,
          8,
          9,
          10,
          11,
          12,
          13,
          14,
          15,
          16,
          17,
          18,
          19,
          20,
          21,
          22,
          23,
          24,
          25,
          26,
          27,
          28,
          29,
          30,
          31,
          32,
          33,
          34,
          35,
          36,
          37,
          38,
          39,
          40,
          41,
          42,
          43,
          44,
          45,
          46,
          47,
          48,
          49,
          50,
          51,
          52,
          53,
          54,
          55,
          56,
          57,
          58,
          59,
          60,
          61,
          62,
          63,
          64,
          65,
          66,
          67,
          68,
          69,
          70,
          71,
          72,
          73,
          74,
          75,
          76,
          77,
          78,
          79,
          80,
          81,
          82,
          83,
          84,
          85,
          86,
          87,
          88,
          89,
          90,
          91,
          92,
          93,
          94,
          95,
          96,
          97,
          98,
          99,
          100,
          101,
          102,
          103,
          104,
          105,
          106,
          107,
          108,
          109,
          110,
          111,
          112,
          113,
          114,
          115,
          116,
          117,
          118,
          119,
          120,
          121,
          122,
          123,
          124,
          125,
          126,
          127,
          128,
          129,
          130,
          131,
          132,
          133,
          134,
          135,
          136,
          137,
          138,
          139,
          140,
          141,
          142,
          143,
          144,
          145,
          146,
          147,
          148,
          149,
          150
        ],
        "AcquisitionTime": [
          "155548.172500",
          "155550.782500",
          "155553.392500",
          "155556.002500",
          "155558.615000",
          "155601.225000",
          "155603.835000",
          "155606.445000",
          "155609.055000",
          "155611.665000",
          "155614.277500",
          "155616.887500",
          "155619.497500",
          "155622.107500",
          "155624.717500",
          "155627.330000",
          "155629.940000",
          "155632.550000",
          "155635.160000",
          "155637.770000",
          "155640.380000",
          "155642.992500",
          "155645.602500",
          "155648.212500",
          "155650.822500",
          "155653.432500",
          "155656.042500",
          "155658.655000",
          "155701.265000",
          "155703.875000",
          "155706.485000",
          "155709.095000",
          "155711.707500",
          "155714.317500",
          "155716.927500",
          "155719.537500",
          "155722.147500",
          "155724.757500",
          "155727.370000",
          "155729.980000",
          "155732.590000",
          "155735.200000",
          "155737.810000",
          "155740.420000",
          "155743.032500",
          "155745.642500",
          "155748.252500",
          "155750.862500",
          "155753.472500",
          "155756.085000",
          "155758.695000",
          "155801.305000",
          "155803.915000",
          "155806.525000",
          "155809.135000",
          "155811.747500",
          "155814.357500",
          "155816.967500",
          "155819.577500",
          "155822.187500",
          "155824.797500",
          "155827.410000",
          "155830.020000",
          "155832.630000",
          "155835.240000",
          "155837.850000",
          "155840.462500",
          "155843.072500",
          "155845.682500",
          "155848.292500",
          "155850.902500",
          "155853.512500",
          "155856.125000",
          "155858.735000",
          "155901.345000",
          "155903.955000",
          "155906.565000",
          "155909.175000",
          "155911.787500",
          "155914.397500",
          "155917.007500",
          "155919.617500",
          "155922.227500",
          "155924.840000",
          "155927.450000",
          "155930.060000",
          "155932.670000",
          "155935.280000",
          "155937.890000",
          "155940.502500",
          "155943.112500",
          "155945.722500",
          "155948.332500",
          "155950.942500",
          "155953.552500",
          "155956.165000",
          "155958.775000",
          "160001.385000",
          "160003.995000",
          "160006.605000",
          "160009.217500",
          "160011.827500",
          "160014.437500",
          "160017.047500",
          "160019.657500",
          "160022.267500",
          "160024.880000",
          "160027.490000",
          "160030.100000",
          "160032.710000",
          "160035.320000",
          "160037.930000",
          "160040.542500",
          "160043.152500",
          "160045.762500",
          "160048.372500",
          "160050.982500",
          "160053.595000",
          "160056.205000",
          "160058.815000",
          "160101.425000",
          "160104.035000",
          "160106.645000",
          "160109.257500",
          "160111.867500",
          "160114.477500",
          "160117.087500",
          "160119.697500",
          "160122.307500",
          "160124.920000",
          "160127.530000",
          "160130.140000",
          "160132.750000",
          "160135.360000",
          "160137.972500",
          "160140.582500",
          "160143.192500",
          "160145.802500",
          "160148.412500",
          "160151.022500",
          "160153.635000",
          "160156.245000",
          "160158.855000",
          "160201.465000",
          "160204.075000",
          "160206.685000",
          "160209.297500",
          "160211.907500",
          "160214.517500",
          "160217.127500"
        ],
        "ContentTime": [
          "155557.203000",
          "155557.703000",
          "155558.203000",
          "155600.703000",
          "155603.203000",
          "155605.703000",
          "155608.703000",
          "155611.203000",
          "155613.703000",
          "155616.203000",
          "155618.703000",
          "155621.703000",
          "155624.203000",
          "155626.703000",
          "155629.203000",
          "155631.703000",
          "155634.703000",
          "155637.203000",
          "155639.703000",
          "155642.203000",
          "155644.703000",
          "155647.703000",
          "155650.203000",
          "155652.703000",
          "155655.203000",
          "155657.703000",
          "155700.703000",
          "155703.203000",
          "155705.703000",
          "155708.203000",
          "155710.703000",
          "155713.703000",
          "155716.203000",
          "155718.703000",
          "155721.203000",
          "155723.703000",
          "155726.703000",
          "155729.203000",
          "155731.703000",
          "155734.203000",
          "155736.703000",
          "155739.703000",
          "155742.203000",
          "155744.703000",
          "155747.203000",
          "155749.703000",
          "155752.703000",
          "155755.203000",
          "155757.703000",
          "155800.203000",
          "155802.703000",
          "155805.703000",
          "155808.203000",
          "155810.703000",
          "155813.203000",
          "155815.703000",
          "155818.703000",
          "155821.203000",
          "155823.703000",
          "155826.203000",
          "155828.703000",
          "155831.703000",
          "155834.203000",
          "155836.703000",
          "155839.203000",
          "155841.703000",
          "155844.703000",
          "155847.203000",
          "155849.703000",
          "155852.203000",
          "155854.703000",
          "155857.703000",
          "155900.203000",
          "155902.703000",
          "155905.203000",
          "155907.703000",
          "155910.703000",
          "155913.203000",
          "155915.703000",
          "155918.203000",
          "155920.703000",
          "155923.703000",
          "155926.203000",
          "155928.703000",
          "155931.203000",
          "155933.703000",
          "155936.703000",
          "155939.203000",
          "155941.703000",
          "155944.203000",
          "155947.203000",
          "155949.703000",
          "155952.203000",
          "155954.703000",
          "155957.203000",
          "155959.703000",
          "160002.703000",
          "160005.203000",
          "160007.703000",
          "160010.203000",
          "160012.703000",
          "160015.703000",
          "160018.203000",
          "160020.703000",
          "160023.203000",
          "160025.703000",
          "160028.703000",
          "160031.203000",
          "160033.703000",
          "160036.203000",
          "160038.703000",
          "160041.703000",
          "160044.203000",
          "160046.703000",
          "160049.203000",
          "160051.703000",
          "160054.703000",
          "160057.203000",
          "160059.703000",
          "160102.203000",
          "160104.703000",
          "160107.703000",
          "160110.203000",
          "160112.703000",
          "160115.203000",
          "160117.703000",
          "160120.703000",
          "160123.203000",
          "160125.703000",
          "160128.203000",
          "160130.703000",
          "160133.703000",
          "160136.203000",
          "160138.703000",
          "160141.203000",
          "160143.703000",
          "160146.703000",
          "160149.203000",
          "160151.703000",
          "160154.203000",
          "160156.703000",
          "160159.703000",
          "160202.203000",
          "160204.703000",
          "160207.203000",
          "160209.703000",
          "160212.703000",
          "160215.203000",
          "160217.703000",
          "160225.078000"
        ],
        "InstanceCreationTime": [
          "155557.203000",
          "155557.703000",
          "155558.203000",
          "155600.703000",
          "155603.203000",
          "155605.703000",
          "155608.703000",
          "155611.203000",
          "155613.703000",
          "155616.203000",
          "155618.703000",
          "155621.703000",
          "155624.203000",
          "155626.703000",
          "155629.203000",
          "155631.703000",
          "155634.703000",
          "155637.203000",
          "155639.703000",
          "155642.203000",
          "155644.703000",
          "155647.703000",
          "155650.203000",
          "155652.703000",
          "155655.203000",
          "155657.703000",
          "155700.703000",
          "155703.203000",
          "155705.703000",
          "155708.203000",
          "155710.703000",
          "155713.703000",
          "155716.203000",
          "155718.703000",
          "155721.203000",
          "155723.703000",
          "155726.703000",
          "155729.203000",
          "155731.703000",
          "155734.203000",
          "155736.703000",
          "155739.703000",
          "155742.203000",
          "155744.703000",
          "155747.203000",
          "155749.703000",
          "155752.703000",
          "155755.203000",
          "155757.703000",
          "155800.203000",
          "155802.703000",
          "155805.703000",
          "155808.203000",
          "155810.703000",
          "155813.203000",
          "155815.703000",
          "155818.703000",
          "155821.203000",
          "155823.703000",
          "155826.203000",
          "155828.703000",
          "155831.703000",
          "155834.203000",
          "155836.703000",
          "155839.203000",
          "155841.703000",
          "155844.703000",
          "155847.203000",
          "155849.703000",
          "155852.203000",
          "155854.703000",
          "155857.703000",
          "155900.203000",
          "155902.703000",
          "155905.203000",
          "155907.703000",
          "155910.703000",
          "155913.203000",
          "155915.703000",
          "155918.203000",
          "155920.703000",
          "155923.703000",
          "155926.203000",
          "155928.703000",
          "155931.203000",
          "155933.703000",
          "155936.703000",
          "155939.203000",
          "155941.703000",
          "155944.203000",
          "155947.203000",
          "155949.703000",
          "155952.203000",
          "155954.703000",
          "155957.203000",
          "155959.703000",
          "160002.703000",
          "160005.203000",
          "160007.703000",
          "160010.203000",
          "160012.703000",
          "160015.703000",
          "160018.203000",
          "160020.703000",
          "160023.203000",
          "160025.703000",
          "160028.703000",
          "160031.203000",
          "160033.703000",
          "160036.203000",
          "160038.703000",
          "160041.703000",
          "160044.203000",
          "160046.703000",
          "160049.203000",
          "160051.703000",
          "160054.703000",
          "160057.203000",
          "160059.703000",
          "160102.203000",
          "160104.703000",
          "160107.703000",
          "160110.203000",
          "160112.703000",
          "160115.203000",
          "160117.703000",
          "160120.703000",
          "160123.203000",
          "160125.703000",
          "160128.203000",
          "160130.703000",
          "160133.703000",
          "160136.203000",
          "160138.703000",
          "160141.203000",
          "160143.703000",
          "160146.703000",
          "160149.203000",
          "160151.703000",
          "160154.203000",
          "160156.703000",
          "160159.703000",
          "160202.203000",
          "160204.703000",
          "160207.203000",
          "160209.703000",
          "160212.703000",
          "160215.203000",
          "160217.703000",
          "160225.078000"
        ],
        "InstanceNumber": [
          1,
          2,
          3,
          4,
          5,
          6,
          7,
          8,
          9,
          10,
          11,
          12,
          13,
          14,
          15,
          16,
          17,
          18,
          19,
          20,
          21,
          22,
          23,
          24,
          25,
          26,
          27,
          28,
          29,
          30,
          31,
          32,
          33,
          34,
          35,
          36,
          37,
          38,
          39,
          40,
          41,
          42,
          43,
          44,
          45,
          46,
          47,
          48,
          49,
          50,
          51,
          52,
          53,
          54,
          55,
          56,
          57,
          58,
          59,
          60,
          61,
          62,
          63,
          64,
          65,
          66,
          67,
          68,
          69,
          70,
          71,
          72,
          73,
          74,
          75,
          76,
          77,
          78,
          79,
          80,
          81,
          82,
          83,
          84,
          85,
          86,
          87,
          88,
          89,
          90,
          91,
          92,
          93,
          94,
          95,
          96,
          97,
          98,
          99,
          100,
          101,
          102,
          103,
          104,
          105,
          106,
          107,
          108,
          109,
          110,
          111,
          112,
          113,
          114,
          115,
          116,
          117,
          118,
          119,
          120,
          121,
          122,
          123,
          124,
          125,
          126,
          127,
          128,
          129,
          130,
          131,
          132,
          133,
          134,
          135,
          136,
          137,
          138,
          139,
          140,
          141,
          142,
          143,
          144,
          145,
          146,
          147,
          148,
          149,
          150
        ],
        "WindowCenter": [
          859.0,
          857.0,
          857.0,
          856.0,
          856.0,
          856.0,
          855.0,
          854.0,
          854.0,
          854.0,
          854.0,
          855.0,
          856.0,
          855.0,
          855.0,
          857.0,
          856.0,
          853.0,
          851.0,
          852.0,
          853.0,
          853.0,
          854.0,
          855.0,
          855.0,
          856.0,
          855.0,
          855.0,
          854.0,
          854.0,
          855.0,
          854.0,
          855.0,
          855.0,
          855.0,
          856.0,
          855.0,
          855.0,
          855.0,
          855.0,
          856.0,
          855.0,
          855.0,
          856.0,
          855.0,
          855.0,
          856.0,
          856.0,
          855.0,
          855.0,
          856.0,
          855.0,
          855.0,
          855.0,
          856.0,
          856.0,
          855.0,
          854.0,
          855.0,
          855.0,
          856.0,
          857.0,
          855.0,
          855.0,
          855.0,
          856.0,
          855.0,
          855.0,
          855.0,
          856.0,
          856.0,
          855.0,
          855.0,
          855.0,
          856.0,
          856.0,
          856.0,
          856.0,
          856.0,
          855.0,
          855.0,
          856.0,
          855.0,
          855.0,
          855.0,
          855.0,
          855.0,
          855.0,
          855.0,
          855.0,
          855.0,
          855.0,
          855.0,
          856.0,
          856.0,
          856.0,
          855.0,
          855.0,
          856.0,
          856.0,
          856.0,
          857.0,
          857.0,
          857.0,
          857.0,
          857.0,
          857.0,
          857.0,
          856.0,
          854.0,
          853.0,
          855.0,
          856.0,
          855.0,
          855.0,
          855.0,
          855.0,
          855.0,
          856.0,
          856.0,
          857.0,
          856.0,
          855.0,
          856.0,
          856.0,
          856.0,
          856.0,
          856.0,
          855.0,
          856.0,
          855.0,
          855.0,
          856.0,
          856.0,
          856.0,
          856.0,
          857.0,
          857.0,
          857.0,
          856.0,
          857.0,
          857.0,
          857.0,
          857.0,
          856.0,
          856.0,
          857.0,
          857.0,
          856.0,
          856.0
        ],
        "WindowWidth": [
          1948.0,
          1941.0,
          1940.0,
          1938.0,
          1939.0,
          1937.0,
          1934.0,
          1932.0,
          1931.0,
          1931.0,
          1933.0,
          1937.0,
          1936.0,
          1934.0,
          1938.0,
          1946.0,
          1940.0,
          1926.0,
          1923.0,
          1924.0,
          1928.0,
          1928.0,
          1933.0,
          1933.0,
          1936.0,
          1937.0,
          1934.0,
          1935.0,
          1933.0,
          1933.0,
          1935.0,
          1934.0,
          1933.0,
          1934.0,
          1937.0,
          1940.0,
          1937.0,
          1934.0,
          1936.0,
          1937.0,
          1938.0,
          1936.0,
          1935.0,
          1938.0,
          1934.0,
          1936.0,
          1939.0,
          1941.0,
          1936.0,
          1936.0,
          1938.0,
          1936.0,
          1935.0,
          1936.0,
          1940.0,
          1939.0,
          1937.0,
          1933.0,
          1935.0,
          1935.0,
          1940.0,
          1942.0,
          1934.0,
          1934.0,
          1936.0,
          1938.0,
          1936.0,
          1936.0,
          1935.0,
          1938.0,
          1937.0,
          1936.0,
          1937.0,
          1934.0,
          1939.0,
          1939.0,
          1939.0,
          1939.0,
          1937.0,
          1937.0,
          1936.0,
          1937.0,
          1934.0,
          1933.0,
          1934.0,
          1936.0,
          1934.0,
          1936.0,
          1935.0,
          1937.0,
          1936.0,
          1934.0,
          1935.0,
          1937.0,
          1938.0,
          1939.0,
          1935.0,
          1936.0,
          1938.0,
          1940.0,
          1939.0,
          1941.0,
          1942.0,
          1941.0,
          1942.0,
          1942.0,
          1944.0,
          1944.0,
          1939.0,
          1930.0,
          1929.0,
          1936.0,
          1937.0,
          1934.0,
          1935.0,
          1935.0,
          1935.0,
          1936.0,
          1940.0,
          1938.0,
          1940.0,
          1937.0,
          1936.0,
          1939.0,
          1939.0,
          1939.0,
          1938.0,
          1936.0,
          1936.0,
          1938.0,
          1935.0,
          1934.0,
          1937.0,
          1939.0,
          1938.0,
          1940.0,
          1940.0,
          1943.0,
          1941.0,
          1940.0,
          1943.0,
          1943.0,
          1943.0,
          1940.0,
          1939.0,
          1940.0,
          1941.0,
          1941.0,
          1937.0,
          1936.0
        ]
      },
      "slices": {}
    }
  },
  "dummy_trs": 1,
  "dvars_nstd": 74.85822816770272,
  "dvars_std": 1.0721188914189193,
  "dvars_vstd": 1.013529691216216,
  "efc": 0.5738570678192624,
  "fber": 333.6842041015625,
  "fd_mean": 0.03902601828726118,
  "fd_num": 2,
  "fd_perc": 1.342281879194631,
  "fwhm_avg": 2.8796151472127574,
  "fwhm_x": 2.783321625161979,
  "fwhm_y": 2.8544056997055955,
  "fwhm_z": 3.0011181167706984,
  "gcor": 0.00246791,
  "gsr_x": 0.0011851700255647302,
  "gsr_y": 0.046671051532030106,
  "provenance": {
    "md5sum": "8640323864435c9c5228bc05df756597",
    "settings": {
      "fd_thres": 0.2,
      "testing": false
    },
    "software": "mriqc",
    "version": "22.0.6",
    "webapi_port": null,
    "webapi_url": "https://mriqc.nimh.nih.gov/api/v1"
  },
  "size_t": 149,
  "size_x": 188,
  "size_y": 188,
  "size_z": 46,
  "snr": 2.4797842089494115,
  "spacing_tr": 2.5999999046325684,
  "spacing_x": 1.0957447290420532,
  "spacing_y": 1.0957447290420532,
  "spacing_z": 1.100000023841858,
  "summary_bg_k": 52.58176922838738,
  "summary_bg_mad": 25.08483502738099,
  "summary_bg_mean": 90.48351287841797,
  "summary_bg_median": 50.92617416381836,
  "summary_bg_n": 1062527.0,
  "summary_bg_p05": 31.939598083496094,
