{
  "aor": 0.0009288,
  "aqi": 0.013200927333333333,
  "bids_meta": {
    "AcquisitionMatrixPE": 188,
    "AcquisitionNumber": 1,
    "AcquisitionTime": "15:40:27.210000",
    "BandwidthPerPixelPhaseEncode": 19.46,
    "BaseResolution": 188,
    "CogAtlasID": "TODO",
    "ConversionSoftware": "dcm2niix",
    "ConversionSoftwareVersion": "v1.0.20180606 GCC4.8.5",
    "DelayTime": 1.2,
    "DerivedVendorReportedEchoSpacing": 0.000820013,
    "DeviceSerialNumber": "18930",
    "DwellTime": 1.9e-06,
    "EchoTime": 0.02,
    "EffectiveEchoSpacing": 0.000273338,
    "FlipAngle": 80,
    "ImageComments": "Unaliased_MB2_PE2",
    "ImageOrientationPatientDICOM": [
      0.997694,
      0.0552999,
      -0.0393616,
      -0.0469247,
      0.142908,
      -0.988623
    ],
    "ImageType": [
      "ORIGINAL",
      "PRIMARY",
      "M",
      "MB",
      "ND",
      "MOSAIC"
    ],
    "InPlanePhaseEncodingDirectionDICOM": "COL",
    "InstitutionAddress": "Oxfordlaan_55_Maastricht_753AAF_Limburg_NL_6229_EV",
    "InstitutionName": "Scannexus",
    "InstitutionalDepartmentName": "MRI_7T",
    "MRAcquisitionType": "2D",
    "MagneticFieldStrength": 6.98,
    "Manufacturer": "Siemens",
    "ManufacturersModelName": "Investigational_Device_7T",
    "Modality": "MR",
    "MultibandAccelerationFactor": 2,
    "ParallelReductionFactorInPlane": 3,
    "PartialFourier": 0.75,
    "PatientPosition": "HFS",
    "PercentPhaseFOV": 100,
    "PhaseEncodingDirection": "j",
    "PhaseEncodingSteps": 141,
    "PhaseResolution": 1,
    "PixelBandwidth": 1400,
    "ProcedureStepDescription": "FeDem_Faruk",
    "ProtocolName": "cmrr_mbep2d_bold_AP_run7",
    "PulseSequenceDetails": "%CustomerSeq%_cmrr_mbep2d_bold",
    "ReceiveCoilName": "32Ch_Head_7T",
    "ReconMatrixPE": 188,
    "RepetitionTime": 2.6,
    "SAR": 0.0588072,
    "ScanOptions": "PFP_FS",
    "ScanningSequence": "EP",
    "SequenceName": "epfid2d1_188",
    "SequenceVariant": "SK_SS",
    "SeriesDescription": "cmrr_mbep2d_bold_AP_run7",
    "SeriesNumber": 20,
    "ShimSetting": [
      74,
      22,
      526,
      331,
      -94,
      30,
      178,
      188
    ],
    "SliceThickness": 1.1,
    "SliceTiming": [
      0,
      0.7325,
      0.06,
      0.795,
      0.1225,
      0.855,
      0.1825,
      0.9175,
      0.245,
      0.9775,
      0.305,
      1.0375,
      0.3675,
      1.1,
      0.4275,
      1.16,
      0.4875,
      1.2225,
      0.55,
      1.2825,
      0.61,
      1.345,
      0.6725,
      0,
      0.7325,
      0.06,
      0.795,
      0.1225,
      0.855,
      0.1825,
      0.9175,
      0.245,
      0.9775,
      0.305,
      1.0375,
      0.3675,
      1.1,
      0.4275,
      1.16,
      0.4875,
      1.2225,
      0.55,
      1.2825,
      0.61,
      1.345,
      0.6725
    ],
    "SoftwareVersions": "syngo_MR_B17",
    "SpacingBetweenSlices": 1.1,
    "StationName": "MRC18930",
    "TaskName": "auditory",
    "TotalReadoutTime": 0.0511141,
    "TxRefAmp": 210,
    "dataset": "ds001942",
    "dcmmeta_affine": [
      [
        -1.0932174921035767,
        -0.051417529582977295,
        0.053950224071741104,
        101.08625793457031
      ],
      [
        -0.06059454008936882,
        0.1565903127193451,
        -1.0870089530944824,
        41.250267028808594
      ],
      [
        -0.043130211532115936,
        1.0832784175872803,
        0.15969029068946838,
        -112.83697509765625
      ],
      [
        0.0,
        0.0,
        0.0,
        1.0
      ]
    ],
    "dcmmeta_reorient_transform": [
      [
        0.0,
        -1.0,
        0.0,
        187.0
      ],
      [
        1.0,
        0.0,
        0.0,
        0.0
      ],
      [
        0.0,
        0.0,
        1.0,
        0.0
      ],
      [
        0.0,
        0.0,
        0.0,
        1.0
      ]
    ],
    "dcmmeta_shape": [
      188,
      188,
      46,
      150
    ],
    "dcmmeta_slice_dim": 2,
    "dcmmeta_version": 0.6,
    "global": {
      "const": {
        "AcquisitionMatrix": [
          188,
          0,
          0,
          188
        ],
        "AngioFlag": "N",
        "BitsAllocated": 16,
        "BitsStored": 12,
        "Columns": 1316,
        "EchoNumbers": 1,
        "EchoTime": 20.0,
        "EchoTrainLength": 1,
        "FlipAngle": 80.0,
        "HighBit": 11,
        "ImageOrientationPatient": [
          0.99769363669209,
          0.05529987056619,
          -0.0393615500135,
          -0.0469247344932,
          0.14290765139171,
          -0.9886230183778
        ],
        "ImagePositionPatient": [
          -679.04638794689,
          -193.02490866948,
          725.0305860642
        ],
        "ImageType": [
          "ORIGINAL",
          "PRIMARY",
          "M",
          "MB",
          "ND",
          "MOSAIC"
        ],
        "ImagedNucleus": "1H",
        "ImagingFrequency": 297.205647,
        "InPlanePhaseEncodingDirection": "COL",
        "LargestImagePixelValue": 4095,
        "MRAcquisitionType": "2D",
        "MagneticFieldStrength": 6.98,
        "Manufacturer": "SIEMENS",
        "ManufacturerModelName": "Investigational_Device_7T",
        "Modality": "MR",
        "NumberOfAverages": 1.0,
        "NumberOfPhaseEncodingSteps": 141,
        "PercentPhaseFieldOfView": 100.0,
        "PercentSampling": 100.0,
        "PerformedProcedureStepStartTime": "142439.593000",
        "PhotometricInterpretation": "MONOCHROME2",
        "PixelBandwidth": 1400.0,
        "PixelRepresentation": 0,
        "PixelSpacing": [
          1.0957447290421,
          1.0957447290421
        ],
        "ProtocolName": "cmrr_mbep2d_bold_AP_run7",
        "RepetitionTime": 2600.0,
        "Rows": 1316,
        "SAR": 0.05880724546778,
        "SamplesPerPixel": 1,
        "ScanOptions": [
          "PFP",
          "FS"
        ],
        "ScanningSequence": "EP",
        "SequenceName": "epfid2d1_188",
        "SequenceVariant": [
          "SK",
          "SS"
        ],
        "SeriesDescription": "cmrr_mbep2d_bold_AP_run7",
        "SeriesNumber": 20,
        "SeriesTime": "154037.156000",
        "SliceLocation": -52.186137634346,
        "SliceThickness": 1.1000000238419,
        "SmallestImagePixelValue": 0,
        "SoftwareVersions": "syngo MR B17",
        "SpacingBetweenSlices": 1.1000000019064,
        "SpecificCharacterSet": "ISO_IR 100",
        "StudyID": "1",
        "StudyTime": "142439.546000",
        "TransmitCoilName": "32Ch_Head_7T",
        "VariableFlipAngleFlag": "N",
        "WindowCenterWidthExplanation": "Algo1",
        "dBdt": 0.0
      },
      "slices": {}
    },
    "modality": "bold",
    "run_id": 7,
    "session_id": "SES03",
    "subject_id": "S07",
    "task_id": "auditory",
    "time": {
      "samples": {
        "AcquisitionNumber": [
          1,
          2,
          3,
          4,
          5,
          6,
          7,
          8,
          9,
          10,
          11,
          12,
          13,
          14,
          15,
          16,
          17,
          18,
          19,
          20,
          21,
          22,
          23,
          24,
          25,
          26,
          27,
          28,
          29,
          30,
          31,
          32,
          33,
          34,
          35,
          36,
          37,
          38,
          39,
          40,
          41,
          42,
          43,
          44,
          45,
          46,
          47,
          48,
          49,
          50,
          51,
          52,
          53,
          54,
          55,
          56,
          57,
          58,
          59,
          60,
          61,
          62,
          63,
          64,
          65,
          66,
          67,
          68,
          69,
          70,
          71,
          72,
          73,
          74,
          75,
          76,
          77,
          78,
          79,
          80,
          81,
          82,
          83,
          84,
          85,
          86,
          87,
          88,
          89,
          90,
          91,
          92,
          93,
          94,
          95,
          96,
          97,
          98,
          99,
          100,
          101,
          102,
          103,
          104,
          105,
          106,
          107,
          108,
          109,
          110,
          111,
          112,
          113,
          114,
          115,
          116,
          117,
          118,
          119,
          120,
          121,
          122,
          123,
          124,
          125,
          126,
          127,
          128,
          129,
          130,
          131,
          132,
          133,
          134,
          135,
          136,
          137,
          138,
          139,
          140,
          141,
          142,
          143,
          144,
          145,
          146,
          147,
          148,
          149,
          150
        ],
        "AcquisitionTime": [
          "154027.210000",
          "154029.820000",
          "154032.430000",
          "154035.040000",
          "154037.652500",
          "154040.262500",
          "154042.872500",
          "154045.482500",
          "154048.092500",
          "154050.702500",
          "154053.315000",
          "154055.925000",
          "154058.535000",
          "154101.145000",
          "154103.755000",
          "154106.367500",
          "154108.977500",
          "154111.587500",
          "154114.197500",
          "154116.807500",
          "154119.417500",
          "154122.030000",
          "154124.640000",
          "154127.250000",
          "154129.860000",
          "154132.470000",
          "154135.082500",
          "154137.692500",
          "154140.302500",
          "154142.912500",
          "154145.522500",
          "154148.132500",
          "154150.745000",
          "154153.355000",
          "154155.965000",
          "154158.575000",
          "154201.185000",
          "154203.795000",
          "154206.407500",
          "154209.017500",
          "154211.627500",
          "154214.237500",
          "154216.847500",
          "154219.460000",
          "154222.070000",
          "154224.680000",
          "154227.290000",
          "154229.900000",
          "154232.510000",
          "154235.122500",
          "154237.732500",
          "154240.342500",
          "154242.952500",
          "154245.562500",
          "154248.172500",
          "154250.785000",
          "154253.395000",
          "154256.005000",
          "154258.615000",
          "154301.225000",
          "154303.837500",
          "154306.447500",
          "154309.057500",
          "154311.667500",
          "154314.277500",
          "154316.887500",
          "154319.500000",
          "154322.110000",
          "154324.720000",
          "154327.330000",
          "154329.940000",
          "154332.550000",
          "154335.162500",
          "154337.772500",
          "154340.382500",
          "154342.992500",
          "154345.602500",
          "154348.215000",
          "154350.825000",
          "154353.435000",
          "154356.045000",
          "154358.655000",
          "154401.265000",
          "154403.877500",
          "154406.487500",
          "154409.097500",
          "154411.707500",
          "154414.317500",
          "154416.927500",
          "154419.540000",
          "154422.150000",
          "154424.760000",
          "154427.370000",
          "154429.980000",
          "154432.592500",
          "154435.202500",
          "154437.812500",
          "154440.422500",
          "154443.032500",
          "154445.642500",
          "154448.255000",
          "154450.865000",
          "154453.475000",
          "154456.085000",
          "154458.695000",
          "154501.305000",
          "154503.917500",
          "154506.527500",
          "154509.137500",
          "154511.747500",
          "154514.357500",
          "154516.970000",
          "154519.580000",
          "154522.190000",
          "154524.800000",
          "154527.410000",
          "154530.020000",
          "154532.632500",
          "154535.242500",
          "154537.852500",
          "154540.462500",
          "154543.072500",
          "154545.682500",
          "154548.295000",
          "154550.905000",
          "154553.515000",
          "154556.125000",
          "154558.735000",
          "154601.347500",
          "154603.957500",
          "154606.567500",
          "154609.177500",
          "154611.787500",
          "154614.397500",
          "154617.010000",
          "154619.620000",
          "154622.230000",
          "154624.840000",
          "154627.450000",
          "154630.060000",
          "154632.672500",
          "154635.282500",
          "154637.892500",
          "154640.502500",
          "154643.112500",
          "154645.725000",
          "154648.335000",
          "154650.945000",
          "154653.555000",
          "154656.165000"
        ],
        "ContentTime": [
          "154037.156000",
          "154038.156000",
          "154038.156000",
          "154040.156000",
          "154042.656000",
          "154045.156000",
          "154048.156000",
          "154050.656000",
          "154053.156000",
          "154055.656000",
          "154058.156000",
          "154101.156000",
          "154103.656000",
          "154106.156000",
          "154108.656000",
          "154111.156000",
          "154114.156000",
          "154116.656000",
          "154119.156000",
          "154121.656000",
          "154124.656000",
          "154127.156000",
          "154129.656000",
          "154132.156000",
          "154134.656000",
          "154137.156000",
          "154140.156000",
          "154142.656000",
          "154145.156000",
          "154147.656000",
          "154150.156000",
          "154153.156000",
          "154155.656000",
          "154158.156000",
          "154200.656000",
          "154203.156000",
          "154206.156000",
          "154208.656000",
          "154211.156000",
          "154213.656000",
          "154216.656000",
          "154219.156000",
          "154221.656000",
          "154224.156000",
          "154226.656000",
          "154229.156000",
          "154232.156000",
          "154234.656000",
          "154237.156000",
          "154239.656000",
          "154242.656000",
          "154245.156000",
          "154247.656000",
          "154250.156000",
          "154252.656000",
          "154255.156000",
          "154258.156000",
          "154300.656000",
          "154303.156000",
          "154305.656000",
          "154308.656000",
          "154311.156000",
          "154313.656000",
          "154316.156000",
          "154318.656000",
          "154321.656000",
          "154324.156000",
          "154326.656000",
          "154329.156000",
          "154331.656000",
          "154334.156000",
          "154337.156000",
          "154339.656000",
          "154342.156000",
          "154344.656000",
          "154347.156000",
          "154350.156000",
          "154352.656000",
          "154355.156000",
          "154357.656000",
          "154400.156000",
          "154403.156000",
          "154405.656000",
          "154408.156000",
          "154410.656000",
          "154413.156000",
          "154416.156000",
          "154418.656000",
          "154421.156000",
          "154423.656000",
          "154426.656000",
          "154429.156000",
          "154431.656000",
          "154434.156000",
          "154436.656000",
          "154439.156000",
          "154442.156000",
          "154444.656000",
          "154447.156000",
          "154449.656000",
          "154452.656000",
          "154455.156000",
          "154457.656000",
          "154500.156000",
          "154502.656000",
          "154505.156000",
          "154508.156000",
          "154510.656000",
          "154513.156000",
          "154515.656000",
          "154518.156000",
          "154521.156000",
          "154523.656000",
          "154526.156000",
          "154528.656000",
          "154531.156000",
          "154534.156000",
          "154536.656000",
          "154539.156000",
          "154541.656000",
          "154544.156000",
          "154547.156000",
          "154549.656000",
          "154552.156000",
          "154554.656000",
          "154557.656000",
          "154600.156000",
          "154602.656000",
          "154605.156000",
          "154607.656000",
          "154610.156000",
          "154613.156000",
          "154615.656000",
          "154618.156000",
          "154620.656000",
          "154623.656000",
          "154626.156000",
          "154628.656000",
          "154631.156000",
          "154633.656000",
          "154636.156000",
          "154639.156000",
          "154641.656000",
          "154644.156000",
          "154646.656000",
          "154649.156000",
          "154652.156000",
          "154654.656000",
          "154657.156000",
          "154704.578000"
        ],
        "InstanceCreationTime": [
          "154037.156000",
          "154038.156000",
          "154038.156000",
          "154040.156000",
          "154042.656000",
          "154045.156000",
          "154048.156000",
          "154050.656000",
          "154053.156000",
          "154055.656000",
          "154058.156000",
          "154101.156000",
          "154103.656000",
          "154106.156000",
          "154108.656000",
          "154111.156000",
          "154114.156000",
          "154116.656000",
          "154119.156000",
          "154121.656000",
          "154124.656000",
          "154127.156000",
          "154129.656000",
          "154132.156000",
          "154134.656000",
          "154137.156000",
          "154140.156000",
          "154142.656000",
          "154145.156000",
          "154147.656000",
          "154150.156000",
          "154153.156000",
          "154155.656000",
          "154158.156000",
          "154200.656000",
          "154203.156000",
          "154206.156000",
          "154208.656000",
          "154211.156000",
          "154213.656000",
          "154216.656000",
          "154219.156000",
          "154221.656000",
          "154224.156000",
          "154226.656000",
          "154229.156000",
          "154232.156000",
          "154234.656000",
          "154237.156000",
          "154239.656000",
          "154242.656000",
          "154245.156000",
          "154247.656000",
          "154250.156000",
          "154252.656000",
          "154255.156000",
          "154258.156000",
          "154300.656000",
          "154303.156000",
          "154305.656000",
          "154308.656000",
          "154311.156000",
          "154313.656000",
          "154316.156000",
          "154318.656000",
          "154321.656000",
          "154324.156000",
          "154326.656000",
          "154329.156000",
          "154331.656000",
          "154334.156000",
          "154337.156000",
          "154339.656000",
          "154342.156000",
          "154344.656000",
          "154347.156000",
          "154350.156000",
          "154352.656000",
          "154355.156000",
          "154357.656000",
          "154400.156000",
          "154403.156000",
          "154405.656000",
          "154408.156000",
          "154410.656000",
          "154413.156000",
          "154416.156000",
          "154418.656000",
          "154421.156000",
          "154423.656000",
          "154426.656000",
          "154429.156000",
          "154431.656000",
          "154434.156000",
          "154436.656000",
          "154439.156000",
          "154442.156000",
          "154444.656000",
          "154447.156000",
          "154449.656000",
          "154452.656000",
          "154455.156000",
          "154457.656000",
          "154500.156000",
          "154502.656000",
          "154505.156000",
          "154508.156000",
          "154510.656000",
          "154513.156000",
          "154515.656000",
          "154518.156000",
          "154521.156000",
          "154523.656000",
          "154526.156000",
          "154528.656000",
          "154531.156000",
          "154534.156000",
          "154536.656000",
          "154539.156000",
          "154541.656000",
          "154544.156000",
          "154547.156000",
          "154549.656000",
          "154552.156000",
          "154554.656000",
          "154557.656000",
          "154600.156000",
          "154602.656000",
          "154605.156000",
          "154607.656000",
          "154610.156000",
          "154613.156000",
          "154615.656000",
          "154618.156000",
          "154620.656000",
          "154623.656000",
          "154626.156000",
          "154628.656000",
          "154631.156000",
          "154633.656000",
          "154636.156000",
          "154639.156000",
          "154641.656000",
          "154644.156000",
          "154646.656000",
          "154649.156000",
          "154652.156000",
          "154654.656000",
          "154657.156000",
          "154704.578000"
        ],
        "InstanceNumber": [
          1,
          2,
          3,
          4,
          5,
          6,
          7,
          8,
          9,
          10,
          11,
          12,
          13,
          14,
          15,
          16,
          17,
          18,
          19,
          20,
          21,
          22,
          23,
          24,
          25,
          26,
          27,
          28,
          29,
          30,
          31,
          32,
          33,
          34,
          35,
          36,
          37,
          38,
          39,
          40,
          41,
          42,
          43,
          44,
          45,
          46,
          47,
          48,
          49,
          50,
          51,
          52,
          53,
          54,
          55,
          56,
          57,
          58,
          59,
          60,
          61,
          62,
          63,
          64,
          65,
          66,
          67,
          68,
          69,
          70,
          71,
          72,
          73,
          74,
          75,
          76,
          77,
          78,
          79,
          80,
          81,
          82,
          83,
          84,
          85,
          86,
          87,
          88,
          89,
          90,
          91,
          92,
          93,
          94,
          95,
          96,
          97,
          98,
          99,
          100,
          101,
          102,
          103,
          104,
          105,
          106,
          107,
          108,
          109,
          110,
          111,
          112,
          113,
          114,
          115,
          116,
          117,
          118,
          119,
          120,
          121,
          122,
          123,
          124,
          125,
          126,
          127,
          128,
          129,
          130,
          131,
          132,
          133,
          134,
          135,
          136,
          137,
          138,
          139,
          140,
          141,
          142,
          143,
          144,
          145,
          146,
          147,
          148,
          149,
          150
        ],
        "WindowCenter": [
          853.0,
          852.0,
          852.0,
          852.0,
          852.0,
          853.0,
          853.0,
          853.0,
          854.0,
          855.0,
          855.0,
          851.0,
          851.0,
          851.0,
          852.0,
          851.0,
          852.0,
          852.0,
          853.0,
          853.0,
          853.0,
          853.0,
          853.0,
          853.0,
          853.0,
          853.0,
          853.0,
          853.0,
          853.0,
          853.0,
          854.0,
          853.0,
          855.0,
          854.0,
          854.0,
          853.0,
          853.0,
          853.0,
          853.0,
          853.0,
          853.0,
          853.0,
          854.0,
          854.0,
          854.0,
          854.0,
          855.0,
          854.0,
          854.0,
          853.0,
          853.0,
          854.0,
          853.0,
          854.0,
          853.0,
          856.0,
          856.0,
          854.0,
          853.0,
          853.0,
          854.0,
          855.0,
          855.0,
          855.0,
          854.0,
          854.0,
          854.0,
          854.0,
          856.0,
          854.0,
          854.0,
          852.0,
          852.0,
          852.0,
          852.0,
          854.0,
          854.0,
          856.0,
          856.0,
          856.0,
          855.0,
          854.0,
          854.0,
          854.0,
          854.0,
          854.0,
          854.0,
          854.0,
          854.0,
          854.0,
          854.0,
          855.0,
          855.0,
          854.0,
          854.0,
          855.0,
          854.0,
          855.0,
          854.0,
          854.0,
          854.0,
          855.0,
          855.0,
          855.0,
          855.0,
          854.0,
          854.0,
          855.0,
          854.0,
          854.0,
          855.0,
          855.0,
          854.0,
          854.0,
          854.0,
          855.0,
          854.0,
          854.0,
          855.0,
          855.0,
          856.0,
          855.0,
          855.0,
          855.0,
          854.0,
          854.0,
          854.0,
          855.0,
          854.0,
          855.0,
          855.0,
          855.0,
          855.0,
          856.0,
          856.0,
          855.0,
          855.0,
          855.0,
          855.0,
          855.0,
          856.0,
          855.0,
          855.0,
          855.0,
          855.0,
          854.0,
          854.0,
          854.0,
          855.0,
          855.0
        ],
        "WindowWidth": [
          1929.0,
          1926.0,
          1926.0,
          1927.0,
          1927.0,
          1931.0,
          1928.0,
          1929.0,
          1936.0,
          1941.0,
          1936.0,
          1924.0,
          1923.0,
          1924.0,
          1926.0,
          1923.0,
          1926.0,
          1926.0,
          1928.0,
          1928.0,
          1928.0,
          1928.0,
          1927.0,
          1930.0,
          1929.0,
          1931.0,
          1930.0,
          1928.0,
          1929.0,
          1928.0,
          1932.0,
          1932.0,
          1937.0,
          1934.0,
          1933.0,
          1930.0,
          1930.0,
          1928.0,
          1931.0,
          1930.0,
          1930.0,
          1931.0,
          1932.0,
          1931.0,
          1932.0,
          1933.0,
          1936.0,
          1932.0,
          1932.0,
          1929.0,
          1930.0,
          1932.0,
          1930.0,
          1933.0,
          1932.0,
          1942.0,
          1940.0,
          1932.0,
          1929.0,
          1931.0,
          1933.0,
          1936.0,
          1937.0,
          1936.0,
          1934.0,
          1933.0,
          1932.0,
          1935.0,
          1942.0,
          1935.0,
          1931.0,
          1927.0,
          1926.0,
          1926.0,
          1927.0,
          1931.0,
          1934.0,
          1939.0,
          1940.0,
          1941.0,
          1938.0,
          1935.0,
          1934.0,
          1932.0,
          1932.0,
          1934.0,
          1933.0,
          1933.0,
          1934.0,
          1934.0,
          1934.0,
          1938.0,
          1937.0,
          1933.0,
          1933.0,
          1935.0,
          1935.0,
          1936.0,
          1934.0,
          1934.0,
          1934.0,
          1935.0,
          1936.0,
          1936.0,
          1936.0,
          1934.0,
          1934.0,
          1936.0,
          1934.0,
          1933.0,
          1937.0,
          1937.0,
          1933.0,
          1934.0,
          1934.0,
          1936.0,
          1933.0,
          1935.0,
          1935.0,
          1938.0,
          1938.0,
          1936.0,
          1935.0,
          1935.0,
          1933.0,
          1932.0,
          1933.0,
          1935.0,
          1932.0,
          1935.0,
          1935.0,
          1935.0,
          1936.0,
          1938.0,
          1938.0,
          1936.0,
          1936.0,
          1935.0,
          1937.0,
          1936.0,
          1939.0,
          1935.0,
          1937.0,
          1936.0,
          1937.0,
          1933.0,
          1933.0,
          1933.0,
          1935.0,
          1936.0
        ]
      },
      "slices": {}
    }
  },
  "dummy_trs": 0,
  "dvars_nstd": 75.0748941304698,
  "dvars_std": 1.0837560322147657,
  "dvars_vstd": 1.0274130050335566,
  "efc": 0.5732393380690427,
  "fber": 341.7828369140625,
  "fd_mean": 0.04530400902948837,
  "fd_num": 4,
  "fd_perc": 2.6666666666666665,
  "fwhm_avg": 2.8938268913279983,
  "fwhm_x": 2.7953134692947703,
  "fwhm_y": 2.870321815510457,
  "fwhm_z": 3.015845389178766,
  "gcor": 0.00270817,
  "gsr_x": 0.0007090059225447476,
  "gsr_y": 0.04643366113305092,
  "provenance": {
    "md5sum": "b615e3d5600b6680617c5f758225d421",
    "settings": {
      "fd_thres": 0.2,
      "testing": false
    },
    "software": "mriqc",
    "version": "22.0.6",
    "webapi_port": null,
    "webapi_url": "https://mriqc.nimh.nih.gov/api/v1"
  },
  "size_t": 150,
  "size_x": 188,
  "size_y": 188,
  "size_z": 46,
  "snr": 2.471620922853081,
  "spacing_tr": 2.5999999046325684,
  "spacing_x": 1.0957447290420532,
  "spacing_y": 1.0957447290420532,
  "spacing_z": 1.100000023841858,
  "summary_bg_k": 52.37218605342742,
  "summary_bg_mad": 24.235606602852073,
  "summary_bg_mean": 89.36311340332031,
  "summary_bg_median": 50.220001220703125,
  "summary_bg_n": 1062123.0,
  "summary_bg_p05": 31.84000015258789,
