{
  "aor": 0.0006736666666666667,
  "aqi": 0.013430796666666668,
  "bids_meta": {
    "AcquisitionMatrixPE": 188,
    "AcquisitionNumber": 1,
    "AcquisitionTime": "16:01:6.170000",
    "BandwidthPerPixelPhaseEncode": 19.46,
    "BaseResolution": 188,
    "ConversionSoftware": "dcm2niix",
    "ConversionSoftwareVersion": "v1.0.20180606 GCC4.8.5",
    "DelayTime": 1.2,
    "DerivedVendorReportedEchoSpacing": 0.000820013,
    "DeviceSerialNumber": "18930",
    "DwellTime": 1.9e-06,
    "EchoTime": 0.02,
    "EffectiveEchoSpacing": 0.000273338,
    "FlipAngle": 80,
    "ImageComments": "Unaliased_MB2_PE2",
    "ImageOrientationPatientDICOM": [
      0.999544,
      -0.0160305,
      -0.0255933,
      -0.0217359,
      0.206462,
      -0.978213
    ],
    "ImageType": [
      "ORIGINAL",
      "PRIMARY",
      "M",
      "MB",
      "ND",
      "MOSAIC"
    ],
    "InPlanePhaseEncodingDirectionDICOM": "COL",
    "InstitutionAddress": "Oxfordlaan_55_Maastricht_753AAF_Limburg_NL_6229_EV",
    "InstitutionName": "Scannexus",
    "InstitutionalDepartmentName": "MRI_7T",
    "MRAcquisitionType": "2D",
    "MagneticFieldStrength": 6.98,
    "Manufacturer": "Siemens",
    "ManufacturersModelName": "Investigational_Device_7T",
    "Modality": "MR",
    "MultibandAccelerationFactor": 2,
    "ParallelReductionFactorInPlane": 3,
    "PartialFourier": 0.75,
    "PatientPosition": "HFS",
    "PercentPhaseFOV": 100,
    "PhaseEncodingDirection": "j",
    "PhaseEncodingSteps": 141,
    "PhaseResolution": 1,
    "PixelBandwidth": 1400,
    "ProcedureStepDescription": "FeDem_Faruk",
    "ProtocolName": "cmrr_mbep2d_bold_AP_run6",
    "PulseSequenceDetails": "%CustomerSeq%_cmrr_mbep2d_bold",
    "ReceiveCoilName": "32Ch_Head_7T",
    "ReconMatrixPE": 188,
    "RepetitionTime": 2.6,
    "SAR": 0.105936,
    "ScanOptions": "PFP_FS",
    "ScanningSequence": "EP",
    "SequenceName": "epfid2d1_188",
    "SequenceVariant": "SK_SS",
    "SeriesDescription": "cmrr_mbep2d_bold_AP_run6",
    "SeriesNumber": 17,
    "ShimSetting": [
      51,
      -85,
      379,
      540,
      17,
      417,
      89,
      118
    ],
    "SliceThickness": 1.1,
    "SliceTiming": [
      0,
      0.7325,
      0.06,
      0.7925,
      0.12,
      0.855,
      0.1825,
      0.915,
      0.2425,
      0.9775,
      0.305,
      1.0375,
      0.365,
      1.1,
      0.4275,
      1.16,
      0.4875,
      1.22,
      0.55,
      1.2825,
      0.61,
      1.3425,
      0.67,
      0,
      0.7325,
      0.06,
      0.7925,
      0.12,
      0.855,
      0.1825,
      0.915,
      0.2425,
      0.9775,
      0.305,
      1.0375,
      0.365,
      1.1,
      0.4275,
      1.16,
      0.4875,
      1.22,
      0.55,
      1.2825,
      0.61,
      1.3425,
      0.67
    ],
    "SoftwareVersions": "syngo_MR_B17",
    "SpacingBetweenSlices": 1.1,
    "StationName": "MRC18930",
    "TaskName": "auditory",
    "TotalReadoutTime": 0.0511141,
    "TxRefAmp": 240,
    "dataset": "ds001942",
    "dcmmeta_affine": [
      [
        -1.0952450037002563,
        -0.023816999047994614,
        -0.023061836138367653,
        111.5621109008789
      ],
      [
        0.017565375193953514,
        0.2262294888496399,
        -1.0761550664901733,
        24.640995025634766
      ],
      [
        -0.028043698519468307,
        1.0718719959259033,
        0.22662104666233063,
        -108.53646850585938
      ],
      [
        0.0,
        0.0,
        0.0,
        1.0
      ]
    ],
    "dcmmeta_reorient_transform": [
      [
        0.0,
        -1.0,
        0.0,
        187.0
      ],
      [
        1.0,
        0.0,
        0.0,
        0.0
      ],
      [
        0.0,
        0.0,
        1.0,
        0.0
      ],
      [
        0.0,
        0.0,
        0.0,
        1.0
      ]
    ],
    "dcmmeta_shape": [
      188,
      188,
      46,
      150
    ],
    "dcmmeta_slice_dim": 2,
    "dcmmeta_version": 0.6,
    "global": {
      "const": {
        "AcquisitionMatrix": [
          188,
          0,
          0,
          188
        ],
        "AngioFlag": "N",
        "BitsAllocated": 16,
        "BitsStored": 12,
        "Columns": 1316,
        "EchoNumbers": 1,
        "EchoTime": 20.0,
        "EchoTrainLength": 1,
        "FlipAngle": 80.0,
        "HighBit": 11,
        "ImageOrientationPatient": [
          0.99954389901482,
          -0.0160305364317,
          -0.0255932773198,
          -0.0217359010372,
          0.20646185470948,
          -0.9782131941229
        ],
        "ImagePositionPatient": [
          -711.39369821386,
          -184.6324684504,
          712.25601335786
        ],
        "ImageType": [
          "ORIGINAL",
          "PRIMARY",
          "M",
          "MB",
          "ND",
          "MOSAIC"
        ],
        "ImagedNucleus": "1H",
        "ImagingFrequency": 297.205584,
        "InPlanePhaseEncodingDirection": "COL",
        "LargestImagePixelValue": 4095,
        "MRAcquisitionType": "2D",
        "MagneticFieldStrength": 6.98,
        "Manufacturer": "SIEMENS",
        "ManufacturerModelName": "Investigational_Device_7T",
        "Modality": "MR",
        "NumberOfAverages": 1.0,
        "NumberOfPhaseEncodingSteps": 141,
        "PercentPhaseFieldOfView": 100.0,
        "PercentSampling": 100.0,
        "PerformedProcedureStepStartTime": "145652.921000",
        "PhotometricInterpretation": "MONOCHROME2",
        "PixelBandwidth": 1400.0,
        "PixelRepresentation": 0,
        "PixelSpacing": [
          1.0957447290421,
          1.0957447290421
        ],
        "ProtocolName": "cmrr_mbep2d_bold_AP_run6",
        "RepetitionTime": 2600.0,
        "Rows": 1316,
        "SAR": 0.10593646916456,
        "SamplesPerPixel": 1,
        "ScanOptions": [
          "PFP",
          "FS"
        ],
        "ScanningSequence": "EP",
        "SequenceName": "epfid2d1_188",
        "SequenceVariant": [
          "SK",
          "SS"
        ],
        "SeriesDescription": "cmrr_mbep2d_bold_AP_run6",
        "SeriesNumber": 17,
        "SeriesTime": "160115.218000",
        "SliceLocation": -48.806395968835,
        "SliceThickness": 1.1000000238419,
        "SmallestImagePixelValue": 0,
        "SoftwareVersions": "syngo MR B17",
        "SpacingBetweenSlices": 1.0999993978041,
        "SpecificCharacterSet": "ISO_IR 100",
        "StudyID": "1",
        "StudyTime": "145652.875000",
        "TransmitCoilName": "32Ch_Head_7T",
        "VariableFlipAngleFlag": "N",
        "WindowCenterWidthExplanation": "Algo1",
        "dBdt": 0.0
      },
      "slices": {}
    },
    "modality": "bold",
    "run_id": 6,
    "session_id": "SES03",
    "subject_id": "S08",
    "task_id": "auditory",
    "time": {
      "samples": {
        "AcquisitionNumber": [
          1,
          2,
          3,
          4,
          5,
          6,
          7,
          8,
          9,
          10,
          11,
          12,
          13,
          14,
          15,
          16,
          17,
          18,
          19,
          20,
          21,
          22,
          23,
          24,
          25,
          26,
          27,
          28,
          29,
          30,
          31,
          32,
          33,
          34,
          35,
          36,
          37,
          38,
          39,
          40,
          41,
          42,
          43,
          44,
          45,
          46,
          47,
          48,
          49,
          50,
          51,
          52,
          53,
          54,
          55,
          56,
          57,
          58,
          59,
          60,
          61,
          62,
          63,
          64,
          65,
          66,
          67,
          68,
          69,
          70,
          71,
          72,
          73,
          74,
          75,
          76,
          77,
          78,
          79,
          80,
          81,
          82,
          83,
          84,
          85,
          86,
          87,
          88,
          89,
          90,
          91,
          92,
          93,
          94,
          95,
          96,
          97,
          98,
          99,
          100,
          101,
          102,
          103,
          104,
          105,
          106,
          107,
          108,
          109,
          110,
          111,
          112,
          113,
          114,
          115,
          116,
          117,
          118,
          119,
          120,
          121,
          122,
          123,
          124,
          125,
          126,
          127,
          128,
          129,
          130,
          131,
          132,
          133,
          134,
          135,
          136,
          137,
          138,
          139,
          140,
          141,
          142,
          143,
          144,
          145,
          146,
          147,
          148,
          149,
          150
        ],
        "AcquisitionTime": [
          "160106.170000",
          "160108.780000",
          "160111.390000",
          "160114.000000",
          "160116.610000",
          "160119.220000",
          "160121.832500",
          "160124.442500",
          "160127.052500",
          "160129.662500",
          "160132.272500",
          "160134.885000",
          "160137.495000",
          "160140.105000",
          "160142.715000",
          "160145.325000",
          "160147.935000",
          "160150.547500",
          "160153.157500",
          "160155.767500",
          "160158.377500",
          "160200.987500",
          "160203.597500",
          "160206.210000",
          "160208.820000",
          "160211.430000",
          "160214.040000",
          "160216.650000",
          "160219.262500",
          "160221.872500",
          "160224.482500",
          "160227.092500",
          "160229.702500",
          "160232.312500",
          "160234.925000",
          "160237.535000",
          "160240.145000",
          "160242.755000",
          "160245.365000",
          "160247.975000",
          "160250.587500",
          "160253.197500",
          "160255.807500",
          "160258.417500",
          "160301.027500",
          "160303.640000",
          "160306.250000",
          "160308.860000",
          "160311.470000",
          "160314.080000",
          "160316.690000",
          "160319.302500",
          "160321.912500",
          "160324.522500",
          "160327.132500",
          "160329.742500",
          "160332.352500",
          "160334.965000",
          "160337.575000",
          "160340.185000",
          "160342.795000",
          "160345.405000",
          "160348.017500",
          "160350.627500",
          "160353.237500",
          "160355.847500",
          "160358.457500",
          "160401.067500",
          "160403.680000",
          "160406.290000",
          "160408.900000",
          "160411.510000",
          "160414.120000",
          "160416.730000",
          "160419.342500",
          "160421.952500",
          "160424.562500",
          "160427.172500",
          "160429.782500",
          "160432.395000",
          "160435.005000",
          "160437.615000",
          "160440.225000",
          "160442.835000",
          "160445.445000",
          "160448.057500",
          "160450.667500",
          "160453.277500",
          "160455.887500",
          "160458.497500",
          "160501.107500",
          "160503.720000",
          "160506.330000",
          "160508.940000",
          "160511.550000",
          "160514.160000",
          "160516.772500",
          "160519.382500",
          "160521.992500",
          "160524.602500",
          "160527.212500",
          "160529.822500",
          "160532.435000",
          "160535.045000",
          "160537.655000",
          "160540.265000",
          "160542.875000",
          "160545.487500",
          "160548.097500",
          "160550.707500",
          "160553.317500",
          "160555.927500",
          "160558.537500",
          "160601.150000",
          "160603.760000",
          "160606.370000",
          "160608.980000",
          "160611.590000",
          "160614.200000",
          "160616.812500",
          "160619.422500",
          "160622.032500",
          "160624.642500",
          "160627.252500",
          "160629.865000",
          "160632.475000",
          "160635.085000",
          "160637.695000",
          "160640.305000",
          "160642.915000",
          "160645.527500",
          "160648.137500",
          "160650.747500",
          "160653.357500",
          "160655.967500",
          "160658.577500",
          "160701.190000",
          "160703.800000",
          "160706.410000",
          "160709.020000",
          "160711.630000",
          "160714.242500",
          "160716.852500",
          "160719.462500",
          "160722.072500",
          "160724.682500",
          "160727.292500",
          "160729.905000",
          "160732.515000",
          "160735.125000"
        ],
        "ContentTime": [
          "160115.218000",
          "160115.718000",
          "160115.718000",
          "160118.218000",
          "160120.718000",
          "160123.718000",
          "160126.218000",
          "160128.718000",
          "160131.218000",
          "160133.718000",
          "160136.218000",
          "160139.218000",
          "160141.718000",
          "160144.218000",
          "160146.718000",
          "160149.718000",
          "160152.218000",
          "160154.718000",
          "160157.218000",
          "160159.718000",
          "160202.718000",
          "160205.218000",
          "160207.718000",
          "160210.218000",
          "160212.718000",
          "160215.718000",
          "160218.218000",
          "160220.718000",
          "160223.218000",
          "160225.718000",
          "160228.218000",
          "160231.218000",
          "160233.718000",
          "160236.218000",
          "160238.718000",
          "160241.718000",
          "160244.218000",
          "160246.718000",
          "160249.218000",
          "160251.718000",
          "160254.718000",
          "160257.218000",
          "160259.718000",
          "160302.218000",
          "160304.718000",
          "160307.718000",
          "160310.218000",
          "160312.718000",
          "160315.218000",
          "160317.718000",
          "160320.718000",
          "160323.218000",
          "160325.718000",
          "160328.218000",
          "160330.718000",
          "160333.218000",
          "160336.218000",
          "160338.718000",
          "160341.218000",
          "160343.718000",
          "160346.718000",
          "160349.218000",
          "160351.718000",
          "160354.218000",
          "160356.718000",
          "160359.718000",
          "160402.218000",
          "160404.718000",
          "160407.218000",
          "160409.718000",
          "160412.718000",
          "160415.218000",
          "160417.718000",
          "160420.218000",
          "160422.718000",
          "160425.718000",
          "160428.218000",
          "160430.718000",
          "160433.218000",
          "160435.718000",
          "160438.718000",
          "160441.218000",
          "160443.718000",
          "160446.218000",
          "160448.718000",
          "160451.718000",
          "160454.218000",
          "160456.718000",
          "160459.218000",
          "160501.718000",
          "160504.718000",
          "160507.218000",
          "160509.718000",
          "160512.218000",
          "160514.718000",
          "160517.718000",
          "160520.218000",
          "160522.734000",
          "160525.218000",
          "160527.718000",
          "160530.718000",
          "160533.218000",
          "160535.718000",
          "160538.218000",
          "160540.718000",
          "160543.218000",
          "160546.218000",
          "160548.718000",
          "160551.218000",
          "160553.718000",
          "160556.718000",
          "160559.218000",
          "160601.718000",
          "160604.218000",
          "160606.718000",
          "160609.218000",
          "160612.218000",
          "160614.718000",
          "160617.218000",
          "160619.718000",
          "160622.718000",
          "160625.218000",
          "160627.718000",
          "160630.218000",
          "160632.718000",
          "160635.218000",
          "160638.218000",
          "160640.718000",
          "160643.218000",
          "160645.718000",
          "160648.718000",
          "160651.218000",
          "160653.718000",
          "160656.218000",
          "160658.718000",
          "160701.718000",
          "160704.218000",
          "160706.718000",
          "160709.218000",
          "160711.718000",
          "160714.218000",
          "160717.218000",
          "160719.718000",
          "160722.218000",
          "160724.718000",
          "160727.218000",
          "160730.218000",
          "160732.718000",
          "160735.218000",
          "160742.609000"
        ],
        "InstanceCreationTime": [
          "160115.218000",
          "160115.718000",
          "160115.718000",
          "160118.218000",
          "160120.718000",
          "160123.718000",
          "160126.218000",
          "160128.718000",
          "160131.218000",
          "160133.718000",
          "160136.218000",
          "160139.218000",
          "160141.718000",
          "160144.218000",
          "160146.718000",
          "160149.718000",
          "160152.218000",
          "160154.718000",
          "160157.218000",
          "160159.718000",
          "160202.718000",
          "160205.218000",
          "160207.718000",
          "160210.218000",
          "160212.718000",
          "160215.718000",
          "160218.218000",
          "160220.718000",
          "160223.218000",
          "160225.718000",
          "160228.218000",
          "160231.218000",
          "160233.718000",
          "160236.218000",
          "160238.718000",
          "160241.718000",
          "160244.218000",
          "160246.718000",
          "160249.218000",
          "160251.718000",
          "160254.718000",
          "160257.218000",
          "160259.718000",
          "160302.218000",
          "160304.718000",
          "160307.718000",
          "160310.218000",
          "160312.718000",
          "160315.218000",
          "160317.718000",
          "160320.718000",
          "160323.218000",
          "160325.718000",
          "160328.218000",
          "160330.718000",
          "160333.218000",
          "160336.218000",
          "160338.718000",
          "160341.218000",
          "160343.718000",
          "160346.718000",
          "160349.218000",
          "160351.718000",
          "160354.218000",
          "160356.718000",
          "160359.718000",
          "160402.218000",
          "160404.718000",
          "160407.218000",
          "160409.718000",
          "160412.718000",
          "160415.218000",
          "160417.718000",
          "160420.218000",
          "160422.718000",
          "160425.718000",
          "160428.218000",
          "160430.718000",
          "160433.218000",
          "160435.718000",
          "160438.718000",
          "160441.218000",
          "160443.718000",
          "160446.218000",
          "160448.718000",
          "160451.718000",
          "160454.218000",
          "160456.718000",
          "160459.218000",
          "160501.718000",
          "160504.718000",
          "160507.218000",
          "160509.718000",
          "160512.218000",
          "160514.718000",
          "160517.718000",
          "160520.218000",
          "160522.734000",
          "160525.218000",
          "160527.718000",
          "160530.718000",
          "160533.218000",
          "160535.718000",
          "160538.218000",
          "160540.718000",
          "160543.218000",
          "160546.218000",
          "160548.718000",
          "160551.218000",
          "160553.718000",
          "160556.718000",
          "160559.218000",
          "160601.718000",
          "160604.218000",
          "160606.718000",
          "160609.218000",
          "160612.218000",
          "160614.718000",
          "160617.218000",
          "160619.718000",
          "160622.718000",
          "160625.218000",
          "160627.718000",
          "160630.218000",
          "160632.718000",
          "160635.218000",
          "160638.218000",
          "160640.718000",
          "160643.218000",
          "160645.718000",
          "160648.718000",
          "160651.218000",
          "160653.718000",
          "160656.218000",
          "160658.718000",
          "160701.718000",
          "160704.218000",
          "160706.718000",
          "160709.218000",
          "160711.718000",
          "160714.218000",
          "160717.218000",
          "160719.718000",
          "160722.218000",
          "160724.718000",
          "160727.218000",
          "160730.218000",
          "160732.718000",
          "160735.218000",
          "160742.609000"
        ],
        "InstanceNumber": [
          1,
          2,
          3,
          4,
          5,
          6,
          7,
          8,
          9,
          10,
          11,
          12,
          13,
          14,
          15,
          16,
          17,
          18,
          19,
          20,
          21,
          22,
          23,
          24,
          25,
          26,
          27,
          28,
          29,
          30,
          31,
          32,
          33,
          34,
          35,
          36,
          37,
          38,
          39,
          40,
          41,
          42,
          43,
          44,
          45,
          46,
          47,
          48,
          49,
          50,
          51,
          52,
          53,
          54,
          55,
          56,
          57,
          58,
          59,
          60,
          61,
          62,
          63,
          64,
          65,
          66,
          67,
          68,
          69,
          70,
          71,
          72,
          73,
          74,
          75,
          76,
          77,
          78,
          79,
          80,
          81,
          82,
          83,
          84,
          85,
          86,
          87,
          88,
          89,
          90,
          91,
          92,
          93,
          94,
          95,
          96,
          97,
          98,
          99,
          100,
          101,
          102,
          103,
          104,
          105,
          106,
          107,
          108,
          109,
          110,
          111,
          112,
          113,
          114,
          115,
          116,
          117,
          118,
          119,
          120,
          121,
          122,
          123,
          124,
          125,
          126,
          127,
          128,
          129,
          130,
          131,
          132,
          133,
          134,
          135,
          136,
          137,
          138,
          139,
          140,
          141,
          142,
          143,
          144,
          145,
          146,
          147,
          148,
          149,
          150
        ],
        "WindowCenter": [
          821.0,
          821.0,
          821.0,
          821.0,
          820.0,
          822.0,
          822.0,
          821.0,
          820.0,
          822.0,
          821.0,
          821.0,
          821.0,
          822.0,
          822.0,
          822.0,
          821.0,
          821.0,
          822.0,
          822.0,
          821.0,
          820.0,
          821.0,
          821.0,
          823.0,
          821.0,
          821.0,
          821.0,
          820.0,
          820.0,
          821.0,
          822.0,
          820.0,
          820.0,
          820.0,
          820.0,
          820.0,
          820.0,
          820.0,
          820.0,
          820.0,
          821.0,
          821.0,
          820.0,
          820.0,
          821.0,
          821.0,
          821.0,
          821.0,
          821.0,
          821.0,
          821.0,
          822.0,
          821.0,
          821.0,
          821.0,
          821.0,
          821.0,
          821.0,
          822.0,
          822.0,
          823.0,
          822.0,
          821.0,
          822.0,
          822.0,
          821.0,
          821.0,
          821.0,
          821.0,
          821.0,
          822.0,
          822.0,
          821.0,
          821.0,
          823.0,
          823.0,
          821.0,
          821.0,
          821.0,
          821.0,
          821.0,
          820.0,
          820.0,
          821.0,
          821.0,
          821.0,
          820.0,
          819.0,
          820.0,
          822.0,
          821.0,
          823.0,
          822.0,
          822.0,
          822.0,
          821.0,
          821.0,
          822.0,
          821.0,
          821.0,
          822.0,
          821.0,
          821.0,
          821.0,
          822.0,
          822.0,
          822.0,
          821.0,
          820.0,
          820.0,
          821.0,
          822.0,
          822.0,
          821.0,
          821.0,
          821.0,
          822.0,
          822.0,
          823.0,
          823.0,
          822.0,
          823.0,
          822.0,
          821.0,
          821.0,
          822.0,
          822.0,
          823.0,
          822.0,
          822.0,
          822.0,
          823.0,
          824.0,
          823.0,
          822.0,
          822.0,
          823.0,
          823.0,
          823.0,
          823.0,
          823.0,
          823.0,
          824.0,
          824.0,
          824.0,
          823.0,
          823.0,
          823.0,
          823.0
        ],
        "WindowWidth": [
          1904.0,
          1904.0,
          1903.0,
          1903.0,
          1901.0,
          1905.0,
          1905.0,
          1903.0,
          1900.0,
          1905.0,
          1903.0,
          1901.0,
          1902.0,
          1905.0,
          1906.0,
          1905.0,
          1903.0,
          1903.0,
          1908.0,
          1907.0,
          1901.0,
          1899.0,
          1902.0,
          1903.0,
          1912.0,
          1906.0,
          1904.0,
          1902.0,
          1901.0,
          1902.0,
          1903.0,
          1907.0,
          1900.0,
          1898.0,
          1898.0,
          1899.0,
          1901.0,
          1900.0,
          1901.0,
          1899.0,
          1897.0,
          1902.0,
          1903.0,
          1901.0,
          1902.0,
          1904.0,
          1903.0,
          1902.0,
          1903.0,
          1902.0,
          1903.0,
          1904.0,
          1908.0,
          1904.0,
          1905.0,
          1904.0,
          1905.0,
          1904.0,
          1904.0,
          1909.0,
          1909.0,
          1913.0,
          1909.0,
          1904.0,
          1906.0,
          1908.0,
          1905.0,
          1904.0,
          1904.0,
          1903.0,
          1904.0,
          1907.0,
          1905.0,
          1905.0,
          1904.0,
          1911.0,
          1909.0,
          1902.0,
          1902.0,
          1904.0,
          1902.0,
          1900.0,
          1899.0,
          1901.0,
          1901.0,
          1903.0,
          1901.0,
          1898.0,
          1896.0,
          1901.0,
          1907.0,
          1907.0,
          1911.0,
          1907.0,
          1908.0,
          1906.0,
          1903.0,
          1903.0,
          1904.0,
          1904.0,
          1904.0,
          1907.0,
          1905.0,
          1903.0,
          1905.0,
          1908.0,
          1909.0,
          1908.0,
          1905.0,
          1900.0,
          1900.0,
          1903.0,
          1906.0,
          1908.0,
          1904.0,
          1905.0,
          1905.0,
          1907.0,
          1906.0,
          1912.0,
          1913.0,
          1910.0,
          1914.0,
          1906.0,
          1903.0,
          1902.0,
          1906.0,
          1906.0,
          1910.0,
          1908.0,
          1906.0,
          1906.0,
          1911.0,
          1915.0,
          1912.0,
          1907.0,
          1907.0,
          1910.0,
          1912.0,
          1913.0,
          1911.0,
          1912.0,
          1913.0,
          1915.0,
          1917.0,
          1915.0,
          1911.0,
          1911.0,
          1912.0,
          1911.0
        ]
      },
      "slices": {}
    }
  },
  "dummy_trs": 0,
  "dvars_nstd": 76.58837516825503,
  "dvars_std": 1.0944310975167781,
  "dvars_vstd": 1.0162116239597319,
  "efc": 0.532565569314005,
  "fber": 429.42999267578125,
  "fd_mean": 0.06696968033830934,
  "fd_num": 2,
  "fd_perc": 1.3333333333333333,
  "fwhm_avg": 2.9453125230584143,
  "fwhm_x": 2.9158068620537083,
  "fwhm_y": 2.938020064960264,
  "fwhm_z": 2.98211064216127,
  "gcor": 0.00291932,
  "gsr_x": -0.005801637656986713,
  "gsr_y": 0.05039175972342491,
  "provenance": {
    "md5sum": "3d09210ea39cf68280b2af9dbc34aab5",
    "settings": {
      "fd_thres": 0.2,
      "testing": false
    },
    "software": "mriqc",
    "version": "23.0.1",
    "webapi_port": null,
    "webapi_url": "https://mriqc.nimh.nih.gov/api/v1"
  },
  "size_t": 150,
  "size_x": 188,
  "size_y": 188,
  "size_z": 46,
  "snr": 2.346704918344362,
  "spacing_tr": 2.5999999046325684,
  "spacing_x": 1.0957447290420532,
  "spacing_y": 1.0957447290420532,
  "spacing_z": 1.0999994277954102,
  "summary_bg_k": 79.48967401778363,
  "summary_bg_mad": 20.281998801610925,
  "summary_bg_mean": 77.45271301269531,
  "summary_bg_median": 45.00666809082031,
  "summary_bg_n": 1127630.0,
  "summary_bg_p05": 29.80666732788086,
  "summary_bg_p95": 217.56666564941406,
