{
  "aor": 0.0006850925925925926,
  "aqi": 0.014282724537037036,
  "bids_meta": {
    "AcquisitionMatrixPE": 188,
    "AcquisitionNumber": 1,
    "AcquisitionTime": "11:44:53.000000",
    "BandwidthPerPixelPhaseEncode": 19.46,
    "BaseResolution": 188,
    "ConversionSoftware": "dcm2niix",
    "ConversionSoftwareVersion": "v1.0.20180606 GCC4.8.5",
    "DelayTime": 1.2,
    "DerivedVendorReportedEchoSpacing": 0.000820013,
    "DeviceSerialNumber": "18930",
    "DwellTime": 1.9e-06,
    "EchoTime": 0.02,
    "EffectiveEchoSpacing": 0.000273338,
    "FlipAngle": 80,
    "ImageComments": "Unaliased_MB2_PE2",
    "ImageOrientationPatientDICOM": [
      0.999494,
      0.00849382,
      0.0306379,
      0.0297914,
      0.0863519,
      -0.995819
    ],
    "ImageType": [
      "ORIGINAL",
      "PRIMARY",
      "M",
      "MB",
      "ND",
      "MOSAIC"
    ],
    "InPlanePhaseEncodingDirectionDICOM": "COL",
    "InstitutionAddress": "Oxfordlaan_55_Maastricht_Limburg_NL_6229_EV",
    "InstitutionName": "Scannexus",
    "InstitutionalDepartmentName": "MRI_7T",
    "MRAcquisitionType": "2D",
    "MagneticFieldStrength": 6.98,
    "Manufacturer": "Siemens",
    "ManufacturersModelName": "Investigational_Device_7T",
    "Modality": "MR",
    "MultibandAccelerationFactor": 2,
    "ParallelReductionFactorInPlane": 3,
    "PartialFourier": 0.75,
    "PatientPosition": "HFS",
    "PercentPhaseFOV": 100,
    "PhaseEncodingDirection": "j",
    "PhaseEncodingSteps": 141,
    "PhaseResolution": 1,
    "PixelBandwidth": 1400,
    "ProcedureStepDescription": "FeDem_fMRI",
    "ProtocolName": "cmrr_mbep2d_bold_AP_run6",
    "PulseSequenceDetails": "%CustomerSeq%_cmrr_mbep2d_bold",
    "ReceiveCoilName": "32Ch_Head_7T",
    "ReconMatrixPE": 188,
    "RepetitionTime": 2.6,
    "SAR": 0.0911697,
    "ScanOptions": "PFP_FS",
    "ScanningSequence": "EP",
    "SequenceName": "epfid2d1_188",
    "SequenceVariant": "SK_SS",
    "SeriesDescription": "cmrr_mbep2d_bold_AP_run6",
    "SeriesNumber": 15,
    "ShimSetting": [
      140,
      -56,
      513,
      496,
      73,
      -8,
      -289,
      115
    ],
    "SliceThickness": 1.1,
    "SliceTiming": [
      0,
      0.735,
      0.0625,
      0.795,
      0.1225,
      0.8575,
      0.185,
      0.9175,
      0.245,
      0.9775,
      0.3075,
      1.04,
      0.3675,
      1.1,
      0.4275,
      1.1625,
      0.49,
      1.2225,
      0.55,
      1.285,
      0.6125,
      1.345,
      0.6725,
      0,
      0.735,
      0.0625,
      0.795,
      0.1225,
      0.8575,
      0.185,
      0.9175,
      0.245,
      0.9775,
      0.3075,
      1.04,
      0.3675,
      1.1,
      0.4275,
      1.1625,
      0.49,
      1.2225,
      0.55,
      1.285,
      0.6125,
      1.345,
      0.6725
    ],
    "SoftwareVersions": "syngo_MR_B17",
    "SpacingBetweenSlices": 1.1,
    "StationName": "MRC18930",
    "TaskName": "auditory",
    "TotalReadoutTime": 0.0511141,
    "TxRefAmp": 255,
    "dataset": "ds001942",
    "dcmmeta_affine": [
      [
        -1.0951907634735107,
        0.03264376521110535,
        0.012214337475597858,
        100.59956359863281
      ],
      [
        -0.00930706039071083,
        0.09461963176727295,
        -1.0958505868911743,
        39.60852813720703
      ],
      [
        0.03357130289077759,
        1.0911636352539062,
        0.09466065466403961,
        -125.09583282470703
      ],
      [
        0.0,
        0.0,
        0.0,
        1.0
      ]
    ],
    "dcmmeta_reorient_transform": [
      [
        0.0,
        -1.0,
        0.0,
        187.0
      ],
      [
        1.0,
        0.0,
        0.0,
        0.0
      ],
      [
        0.0,
        0.0,
        1.0,
        0.0
      ],
      [
        0.0,
        0.0,
        0.0,
        1.0
      ]
    ],
    "dcmmeta_shape": [
      188,
      188,
      46,
      216
    ],
    "dcmmeta_slice_dim": 2,
    "dcmmeta_version": 0.6,
    "global": {
      "const": {
        "AcquisitionMatrix": [
          188,
          0,
          0,
          188
        ],
        "AngioFlag": "N",
        "BitsAllocated": 16,
        "BitsStored": 12,
        "Columns": 1316,
        "EchoNumbers": 1,
        "EchoTime": 20.0,
        "EchoTrainLength": 1,
        "FlipAngle": 80.0,
        "HighBit": 11,
        "ImageOrientationPatient": [
          0.99949445970725,
          0.00849382184882,
          0.03063788512479,
          0.02979139653939,
          0.08635189411508,
          -0.9958191718756
        ],
        "ImagePositionPatient": [
          -742.80263397887,
          -115.91705508054,
          675.4338242904
        ],
        "ImageType": [
          "ORIGINAL",
          "PRIMARY",
          "M",
          "MB",
          "ND",
          "MOSAIC"
        ],
        "ImagedNucleus": "1H",
        "ImagingFrequency": 297.205461,
        "InPlanePhaseEncodingDirection": "COL",
        "LargestImagePixelValue": 4095,
        "MRAcquisitionType": "2D",
        "MagneticFieldStrength": 6.98,
        "Manufacturer": "SIEMENS",
        "ManufacturerModelName": "Investigational_Device_7T",
        "Modality": "MR",
        "NumberOfAverages": 1.0,
        "NumberOfPhaseEncodingSteps": 141,
        "PercentPhaseFieldOfView": 100.0,
        "PercentSampling": 100.0,
        "PerformedProcedureStepStartTime": "101624.203000",
        "PhotometricInterpretation": "MONOCHROME2",
        "PixelBandwidth": 1400.0,
        "PixelRepresentation": 0,
        "PixelSpacing": [
          1.0957447290421,
          1.0957447290421
        ],
        "ProtocolName": "cmrr_mbep2d_bold_AP_run6",
        "RepetitionTime": 2600.0,
        "Rows": 1316,
        "SAR": 0.09116973416471,
        "SamplesPerPixel": 1,
        "ScanOptions": [
          "PFP",
          "FS"
        ],
        "ScanningSequence": "EP",
        "SequenceName": "epfid2d1_188",
        "SequenceVariant": [
          "SK",
          "SS"
        ],
        "SeriesDescription": "cmrr_mbep2d_bold_AP_run6",
        "SeriesNumber": 15,
        "SeriesTime": "114547.265000",
        "SliceLocation": -49.107238697086,
        "SliceThickness": 1.1000000238419,
        "SmallestImagePixelValue": 0,
        "SoftwareVersions": "syngo MR B17",
        "SpacingBetweenSlices": 1.0999993040712,
        "SpecificCharacterSet": "ISO_IR 100",
        "StudyID": "1",
        "StudyTime": "101624.031000",
        "TransmitCoilName": "32Ch_Head_7T",
        "VariableFlipAngleFlag": "N",
        "WindowCenterWidthExplanation": "Algo1",
        "dBdt": 0.0
      },
      "slices": {}
    },
    "modality": "bold",
    "run_id": 6,
    "session_id": "SES05",
    "subject_id": "S02",
    "task_id": "auditory",
    "time": {
      "samples": {
        "AcquisitionNumber": [
          1,
          2,
          3,
          4,
          5,
          6,
          7,
          8,
          9,
          10,
          11,
          12,
          13,
          14,
          15,
          16,
          17,
          18,
          19,
          20,
          21,
          22,
          23,
          24,
          25,
          26,
          27,
          28,
          29,
          30,
          31,
          32,
          33,
          34,
          35,
          36,
          37,
          38,
          39,
          40,
          41,
          42,
          43,
          44,
          45,
          46,
          47,
          48,
          49,
          50,
          51,
          52,
          53,
          54,
          55,
          56,
          57,
          58,
          59,
          60,
          61,
          62,
          63,
          64,
          65,
          66,
          67,
          68,
          69,
          70,
          71,
          72,
          73,
          74,
          75,
          76,
          77,
          78,
          79,
          80,
          81,
          82,
          83,
          84,
          85,
          86,
          87,
          88,
          89,
          90,
          91,
          92,
          93,
          94,
          95,
          96,
          97,
          98,
          99,
          100,
          101,
          102,
          103,
          104,
          105,
          106,
          107,
          108,
          109,
          110,
          111,
          112,
          113,
          114,
          115,
          116,
          117,
          118,
          119,
          120,
          121,
          122,
          123,
          124,
          125,
          126,
          127,
          128,
          129,
          130,
          131,
          132,
          133,
          134,
          135,
          136,
          137,
          138,
          139,
          140,
          141,
          142,
          143,
          144,
          145,
          146,
          147,
          148,
          149,
          150,
          151,
          152,
          153,
          154,
          155,
          156,
          157,
          158,
          159,
          160,
          161,
          162,
          163,
          164,
          165,
          166,
          167,
          168,
          169,
          170,
          171,
          172,
          173,
          174,
          175,
          176,
          177,
          178,
          179,
          180,
          181,
          182,
          183,
          184,
          185,
          186,
          187,
          188,
          189,
          190,
          191,
          192,
          193,
          194,
          195,
          196,
          197,
          198,
          199,
          200,
          201,
          202,
          203,
          204,
          205,
          206,
          207,
          208,
          209,
          210,
          211,
          212,
          213,
          214,
          215,
          216
        ],
        "AcquisitionTime": [
          "114453.000000",
          "114455.612500",
          "114458.222500",
          "114500.832500",
          "114503.442500",
          "114506.052500",
          "114508.662500",
          "114511.275000",
          "114513.885000",
          "114516.495000",
          "114519.105000",
          "114521.715000",
          "114524.327500",
          "114526.937500",
          "114529.547500",
          "114532.157500",
          "114534.767500",
          "114537.377500",
          "114539.990000",
          "114542.600000",
          "114545.210000",
          "114547.820000",
          "114550.430000",
          "114553.040000",
          "114555.652500",
          "114558.262500",
          "114600.872500",
          "114603.482500",
          "114606.092500",
          "114608.705000",
          "114611.315000",
          "114613.925000",
          "114616.535000",
          "114619.145000",
          "114621.755000",
          "114624.367500",
          "114626.977500",
          "114629.587500",
          "114632.197500",
          "114634.807500",
          "114637.417500",
          "114640.030000",
          "114642.640000",
          "114645.250000",
          "114647.860000",
          "114650.470000",
          "114653.082500",
          "114655.692500",
          "114658.302500",
          "114700.912500",
          "114703.522500",
          "114706.132500",
          "114708.745000",
          "114711.355000",
          "114713.965000",
          "114716.575000",
          "114719.185000",
          "114721.795000",
          "114724.407500",
          "114727.017500",
          "114729.627500",
          "114732.237500",
          "114734.847500",
          "114737.460000",
          "114740.070000",
          "114742.680000",
          "114745.290000",
          "114747.900000",
          "114750.510000",
          "114753.122500",
          "114755.732500",
          "114758.342500",
          "114800.952500",
          "114803.562500",
          "114806.172500",
          "114808.785000",
          "114811.395000",
          "114814.005000",
          "114816.615000",
          "114819.225000",
          "114821.837500",
          "114824.447500",
          "114827.057500",
          "114829.667500",
          "114832.277500",
          "114834.887500",
          "114837.500000",
          "114840.110000",
          "114842.720000",
          "114845.330000",
          "114847.940000",
          "114850.550000",
          "114853.162500",
          "114855.772500",
          "114858.382500",
          "114900.992500",
          "114903.602500",
          "114906.215000",
          "114908.825000",
          "114911.435000",
          "114914.045000",
          "114916.655000",
          "114919.265000",
          "114921.877500",
          "114924.487500",
          "114927.097500",
          "114929.707500",
          "114932.317500",
          "114934.927500",
          "114937.540000",
          "114940.150000",
          "114942.760000",
          "114945.370000",
          "114947.980000",
          "114950.592500",
          "114953.202500",
          "114955.812500",
          "114958.422500",
          "115001.032500",
          "115003.642500",
          "115006.255000",
          "115008.865000",
          "115011.475000",
          "115014.085000",
          "115016.695000",
          "115019.305000",
          "115021.917500",
          "115024.527500",
          "115027.137500",
          "115029.747500",
          "115032.357500",
          "115034.970000",
          "115037.580000",
          "115040.190000",
          "115042.800000",
          "115045.410000",
          "115048.020000",
          "115050.632500",
          "115053.242500",
          "115055.852500",
          "115058.462500",
          "115101.072500",
          "115103.682500",
          "115106.295000",
          "115108.905000",
          "115111.515000",
          "115114.125000",
          "115116.735000",
          "115119.347500",
          "115121.957500",
          "115124.567500",
          "115127.177500",
          "115129.787500",
          "115132.397500",
          "115135.010000",
          "115137.620000",
          "115140.230000",
          "115142.840000",
          "115145.450000",
          "115148.060000",
          "115150.672500",
          "115153.282500",
          "115155.892500",
          "115158.502500",
          "115201.112500",
          "115203.725000",
          "115206.335000",
          "115208.945000",
          "115211.555000",
          "115214.165000",
          "115216.775000",
          "115219.387500",
          "115221.997500",
          "115224.607500",
          "115227.217500",
          "115229.827500",
          "115232.437500",
          "115235.050000",
          "115237.660000",
          "115240.270000",
          "115242.880000",
          "115245.490000",
          "115248.102500",
          "115250.712500",
          "115253.322500",
          "115255.932500",
          "115258.542500",
          "115301.152500",
          "115303.765000",
          "115306.375000",
          "115308.985000",
          "115311.595000",
          "115314.205000",
          "115316.815000",
          "115319.427500",
          "115322.037500",
          "115324.647500",
          "115327.257500",
          "115329.867500",
          "115332.480000",
          "115335.090000",
          "115337.700000",
          "115340.310000",
          "115342.920000",
          "115345.530000",
          "115348.142500",
          "115350.752500",
          "115353.362500",
          "115355.972500",
          "115358.582500",
          "115401.192500",
          "115403.805000",
          "115406.415000",
          "115409.025000",
          "115411.635000",
          "115414.245000"
        ],
        "ContentTime": [
          "114547.265000",
          "114547.265000",
          "114547.281000",
          "114547.281000",
          "114547.296000",
          "114547.296000",
          "114547.296000",
          "114547.296000",
          "114547.296000",
          "114547.296000",
          "114547.296000",
          "114547.312000",
          "114547.312000",
          "114547.312000",
          "114547.312000",
          "114547.312000",
          "114547.312000",
          "114547.312000",
          "114547.312000",
          "114547.328000",
          "114647.265000",
          "114647.265000",
          "114647.265000",
          "114647.265000",
          "114647.265000",
          "114647.265000",
          "114647.281000",
          "114647.281000",
          "114647.281000",
          "114647.281000",
          "114647.281000",
          "114647.281000",
          "114647.281000",
          "114647.296000",
          "114647.296000",
          "114647.296000",
          "114647.296000",
          "114647.312000",
          "114647.312000",
          "114647.312000",
          "114647.328000",
          "114647.328000",
          "114647.328000",
          "114747.265000",
          "114747.265000",
          "114747.265000",
          "114747.265000",
          "114747.265000",
          "114747.265000",
          "114747.281000",
          "114747.281000",
          "114747.281000",
          "114747.281000",
          "114747.281000",
          "114747.281000",
          "114747.281000",
          "114747.296000",
          "114747.296000",
          "114747.296000",
          "114747.296000",
          "114747.296000",
          "114747.296000",
          "114747.296000",
          "114747.296000",
          "114747.312000",
          "114747.312000",
          "114847.265000",
          "114847.265000",
          "114847.265000",
          "114847.265000",
          "114847.265000",
          "114847.265000",
          "114847.265000",
          "114847.281000",
          "114847.281000",
          "114847.281000",
          "114847.281000",
          "114847.281000",
          "114847.281000",
          "114847.281000",
          "114847.296000",
          "114847.296000",
          "114847.296000",
          "114847.296000",
          "114847.312000",
          "114847.312000",
          "114847.312000",
          "114847.312000",
          "114847.312000",
          "114947.265000",
          "114947.265000",
          "114947.265000",
          "114947.265000",
          "114947.265000",
          "114947.265000",
          "114947.281000",
          "114947.281000",
          "114947.281000",
          "114947.281000",
          "114947.281000",
          "114947.281000",
          "114947.281000",
          "114947.296000",
          "114947.296000",
          "114947.296000",
          "114947.296000",
          "114947.296000",
          "114947.296000",
          "114947.296000",
          "114947.312000",
          "114947.312000",
          "114947.312000",
          "115027.265000",
          "115027.265000",
          "115027.265000",
          "115027.281000",
          "115027.281000",
          "115027.296000",
          "115027.296000",
          "115027.296000",
          "115027.296000",
          "115027.296000",
          "115027.296000",
          "115027.312000",
          "115027.312000",
          "115027.312000",
          "115027.312000",
          "115127.265000",
          "115127.265000",
          "115127.265000",
          "115127.265000",
          "115127.265000",
          "115127.265000",
          "115127.281000",
          "115127.281000",
          "115127.281000",
          "115127.281000",
          "115127.281000",
          "115127.281000",
          "115127.281000",
          "115127.296000",
          "115127.296000",
          "115127.296000",
          "115127.296000",
          "115127.296000",
          "115127.296000",
          "115127.296000",
          "115127.312000",
          "115127.312000",
          "115127.312000",
          "115127.312000",
          "115227.265000",
          "115227.265000",
          "115227.265000",
          "115227.265000",
          "115227.281000",
          "115227.281000",
          "115227.281000",
          "115227.281000",
          "115227.281000",
          "115227.281000",
          "115227.281000",
          "115227.296000",
          "115227.296000",
          "115227.296000",
          "115227.296000",
          "115227.296000",
          "115227.296000",
          "115227.296000",
          "115227.312000",
          "115227.312000",
          "115227.312000",
          "115227.312000",
          "115227.312000",
          "115327.265000",
          "115327.265000",
          "115327.265000",
          "115327.265000",
          "115327.265000",
          "115327.265000",
          "115327.265000",
          "115327.281000",
          "115327.281000",
          "115327.281000",
          "115327.281000",
          "115327.296000",
          "115327.296000",
          "115327.296000",
          "115327.296000",
          "115327.296000",
          "115327.296000",
          "115327.312000",
          "115327.312000",
          "115327.312000",
          "115327.312000",
          "115327.312000",
          "115327.312000",
          "115421.078000",
          "115421.078000",
          "115421.093000",
          "115421.093000",
          "115421.093000",
          "115421.093000",
          "115421.093000",
          "115421.093000",
          "115421.093000",
          "115421.109000",
          "115421.109000",
          "115421.109000",
          "115421.109000",
          "115421.109000",
          "115421.109000",
          "115421.109000",
          "115421.125000",
          "115421.125000",
          "115421.125000"
        ],
        "InstanceCreationTime": [
          "114547.265000",
          "114547.265000",
          "114547.281000",
          "114547.281000",
          "114547.296000",
          "114547.296000",
          "114547.296000",
          "114547.296000",
          "114547.296000",
          "114547.296000",
          "114547.296000",
          "114547.312000",
          "114547.312000",
          "114547.312000",
          "114547.312000",
          "114547.312000",
          "114547.312000",
          "114547.312000",
          "114547.312000",
          "114547.328000",
          "114647.265000",
          "114647.265000",
          "114647.265000",
          "114647.265000",
          "114647.265000",
          "114647.265000",
          "114647.281000",
          "114647.281000",
          "114647.281000",
          "114647.281000",
          "114647.281000",
          "114647.281000",
          "114647.281000",
          "114647.296000",
          "114647.296000",
          "114647.296000",
          "114647.296000",
          "114647.312000",
          "114647.312000",
          "114647.312000",
          "114647.328000",
          "114647.328000",
          "114647.328000",
          "114747.265000",
          "114747.265000",
          "114747.265000",
          "114747.265000",
          "114747.265000",
          "114747.265000",
          "114747.281000",
          "114747.281000",
          "114747.281000",
          "114747.281000",
          "114747.281000",
          "114747.281000",
          "114747.281000",
          "114747.296000",
          "114747.296000",
          "114747.296000",
          "114747.296000",
          "114747.296000",
          "114747.296000",
          "114747.296000",
          "114747.296000",
          "114747.312000",
          "114747.312000",
          "114847.265000",
          "114847.265000",
          "114847.265000",
          "114847.265000",
          "114847.265000",
          "114847.265000",
          "114847.265000",
          "114847.281000",
          "114847.281000",
          "114847.281000",
          "114847.281000",
          "114847.281000",
          "114847.281000",
          "114847.281000",
          "114847.296000",
          "114847.296000",
          "114847.296000",
          "114847.296000",
          "114847.312000",
          "114847.312000",
          "114847.312000",
          "114847.312000",
          "114847.312000",
          "114947.265000",
          "114947.265000",
          "114947.265000",
          "114947.265000",
          "114947.265000",
          "114947.265000",
          "114947.281000",
          "114947.281000",
          "114947.281000",
          "114947.281000",
          "114947.281000",
          "114947.281000",
          "114947.281000",
          "114947.296000",
          "114947.296000",
          "114947.296000",
          "114947.296000",
          "114947.296000",
          "114947.296000",
          "114947.296000",
          "114947.312000",
          "114947.312000",
          "114947.312000",
          "115027.265000",
          "115027.265000",
          "115027.265000",
          "115027.281000",
          "115027.281000",
          "115027.296000",
          "115027.296000",
          "115027.296000",
          "115027.296000",
          "115027.296000",
          "115027.296000",
          "115027.312000",
          "115027.312000",
          "115027.312000",
          "115027.312000",
          "115127.265000",
          "115127.265000",
          "115127.265000",
          "115127.265000",
          "115127.265000",
          "115127.265000",
          "115127.281000",
          "115127.281000",
          "115127.281000",
          "115127.281000",
          "115127.281000",
          "115127.281000",
          "115127.281000",
          "115127.296000",
          "115127.296000",
          "115127.296000",
          "115127.296000",
          "115127.296000",
          "115127.296000",
          "115127.296000",
          "115127.312000",
          "115127.312000",
          "115127.312000",
          "115127.312000",
          "115227.265000",
          "115227.265000",
          "115227.265000",
          "115227.265000",
          "115227.281000",
          "115227.281000",
          "115227.281000",
          "115227.281000",
          "115227.281000",
          "115227.281000",
          "115227.281000",
          "115227.296000",
          "115227.296000",
          "115227.296000",
          "115227.296000",
          "115227.296000",
          "115227.296000",
          "115227.296000",
          "115227.312000",
          "115227.312000",
          "115227.312000",
          "115227.312000",
          "115227.312000",
          "115327.265000",
          "115327.265000",
          "115327.265000",
          "115327.265000",
          "115327.265000",
          "115327.265000",
          "115327.265000",
          "115327.281000",
          "115327.281000",
          "115327.281000",
          "115327.281000",
          "115327.296000",
          "115327.296000",
          "115327.296000",
          "115327.296000",
          "115327.296000",
          "115327.296000",
          "115327.312000",
          "115327.312000",
          "115327.312000",
          "115327.312000",
          "115327.312000",
          "115327.312000",
          "115421.078000",
          "115421.078000",
          "115421.093000",
          "115421.093000",
          "115421.093000",
          "115421.093000",
          "115421.093000",
          "115421.093000",
          "115421.093000",
          "115421.109000",
          "115421.109000",
          "115421.109000",
          "115421.109000",
          "115421.109000",
          "115421.109000",
          "115421.109000",
          "115421.125000",
          "115421.125000",
          "115421.125000"
        ],
        "InstanceNumber": [
          1,
          2,
          3,
          4,
          5,
          6,
          7,
          8,
          9,
          10,
          11,
          12,
          13,
          14,
          15,
          16,
          17,
          18,
          19,
          20,
          21,
          22,
          23,
          24,
          25,
          26,
          27,
          28,
          29,
          30,
          31,
          32,
          33,
          34,
          35,
          36,
          37,
          38,
          39,
          40,
          41,
          42,
          43,
          44,
          45,
          46,
          47,
          48,
          49,
          50,
          51,
          52,
          53,
          54,
          55,
          56,
          57,
          58,
          59,
          60,
          61,
          62,
          63,
          64,
          65,
          66,
          67,
          68,
          69,
          70,
          71,
          72,
          73,
          74,
          75,
          76,
          77,
          78,
          79,
          80,
          81,
          82,
          83,
          84,
          85,
          86,
          87,
          88,
          89,
          90,
          91,
          92,
          93,
          94,
          95,
          96,
          97,
          98,
          99,
          100,
          101,
          102,
          103,
          104,
          105,
          106,
          107,
          108,
          109,
          110,
          111,
          112,
          113,
          114,
          115,
          116,
          117,
          118,
          119,
          120,
          121,
          122,
          123,
          124,
          125,
          126,
          127,
          128,
          129,
          130,
          131,
          132,
          133,
          134,
          135,
          136,
          137,
          138,
          139,
          140,
          141,
          142,
          143,
          144,
          145,
          146,
          147,
          148,
          149,
          150,
          151,
          152,
          153,
          154,
          155,
          156,
          157,
          158,
          159,
          160,
          161,
          162,
          163,
          164,
          165,
          166,
          167,
          168,
          169,
          170,
