{
  "aor": 0.00060625,
  "aqi": 0.020979879166666666,
  "bids_meta": {
    "AcquisitionMatrixPE": 188,
    "AcquisitionNumber": 1,
    "AcquisitionTime": "10:50:54.505000",
    "BandwidthPerPixelPhaseEncode": 19.46,
    "BaseResolution": 188,
    "ConversionSoftware": "dcm2niix",
    "ConversionSoftwareVersion": "v1.0.20180606 GCC4.8.5",
    "DelayTime": 1.2,
    "DerivedVendorReportedEchoSpacing": 0.000820013,
    "DeviceSerialNumber": "18930",
    "DwellTime": 1.9e-06,
    "EchoTime": 0.02,
    "EffectiveEchoSpacing": 0.000273338,
    "FlipAngle": 80,
    "ImageComments": "Unaliased_MB2_PE2",
    "ImageOrientationPatientDICOM": [
      0.999494,
      0.00849382,
      0.0306379,
      0.0297914,
      0.0863519,
      -0.995819
    ],
    "ImageType": [
      "ORIGINAL",
      "PRIMARY",
      "M",
      "MB",
      "ND",
      "MOSAIC"
    ],
    "InPlanePhaseEncodingDirectionDICOM": "COL",
    "InstitutionAddress": "Oxfordlaan_55_Maastricht_Limburg_NL_6229_EV",
    "InstitutionName": "Scannexus",
    "InstitutionalDepartmentName": "MRI_7T",
    "MRAcquisitionType": "2D",
    "MagneticFieldStrength": 6.98,
    "Manufacturer": "Siemens",
    "ManufacturersModelName": "Investigational_Device_7T",
    "Modality": "MR",
    "MultibandAccelerationFactor": 2,
    "ParallelReductionFactorInPlane": 3,
    "PartialFourier": 0.75,
    "PatientPosition": "HFS",
    "PercentPhaseFOV": 100,
    "PhaseEncodingDirection": "j",
    "PhaseEncodingSteps": 141,
    "PhaseResolution": 1,
    "PixelBandwidth": 1400,
    "ProcedureStepDescription": "FeDem_fMRI",
    "ProtocolName": "cmrr_mbep2d_bold_AP_run1",
    "PulseSequenceDetails": "%CustomerSeq%_cmrr_mbep2d_bold",
    "ReceiveCoilName": "32Ch_Head_7T",
    "ReconMatrixPE": 188,
    "RepetitionTime": 2.6,
    "SAR": 0.0922553,
    "ScanOptions": "PFP_FS",
    "ScanningSequence": "EP",
    "SequenceName": "epfid2d1_188",
    "SequenceVariant": "SK_SS",
    "SeriesDescription": "cmrr_mbep2d_bold_AP_run1",
    "SeriesNumber": 10,
    "ShimSetting": [
      140,
      -56,
      513,
      496,
      73,
      -8,
      -289,
      115
    ],
    "SliceThickness": 1.1,
    "SliceTiming": [
      0,
      0.7325,
      0.06,
      0.795,
      0.1225,
      0.855,
      0.1825,
      0.9175,
      0.245,
      0.9775,
      0.305,
      1.0375,
      0.3675,
      1.1,
      0.4275,
      1.16,
      0.49,
      1.2225,
      0.55,
      1.2825,
      0.61,
      1.345,
      0.6725,
      0,
      0.7325,
      0.06,
      0.795,
      0.1225,
      0.855,
      0.1825,
      0.9175,
      0.245,
      0.9775,
      0.305,
      1.0375,
      0.3675,
      1.1,
      0.4275,
      1.16,
      0.49,
      1.2225,
      0.55,
      1.2825,
      0.61,
      1.345,
      0.6725
    ],
    "SoftwareVersions": "syngo_MR_B17",
    "SpacingBetweenSlices": 1.1,
    "StationName": "MRC18930",
    "TaskName": "auditory",
    "TotalReadoutTime": 0.0511141,
    "TxRefAmp": 255,
    "dataset": "ds001942",
    "dcmmeta_affine": [
      [
        -1.0951907634735107,
        0.03264376521110535,
        0.012214337475597858,
        100.59956359863281
      ],
      [
        -0.00930706039071083,
        0.09461963176727295,
        -1.0958505868911743,
        39.60852813720703
      ],
      [
        0.03357130289077759,
        1.0911636352539062,
        0.09466065466403961,
        -125.09583282470703
      ],
      [
        0.0,
        0.0,
        0.0,
        1.0
      ]
    ],
    "dcmmeta_reorient_transform": [
      [
        0.0,
        -1.0,
        0.0,
        187.0
      ],
      [
        1.0,
        0.0,
        0.0,
        0.0
      ],
      [
        0.0,
        0.0,
        1.0,
        0.0
      ],
      [
        0.0,
        0.0,
        0.0,
        1.0
      ]
    ],
    "dcmmeta_shape": [
      188,
      188,
      46,
      216
    ],
    "dcmmeta_slice_dim": 2,
    "dcmmeta_version": 0.6,
    "global": {
      "const": {
        "AcquisitionMatrix": [
          188,
          0,
          0,
          188
        ],
        "AngioFlag": "N",
        "BitsAllocated": 16,
        "BitsStored": 12,
        "Columns": 1316,
        "EchoNumbers": 1,
        "EchoTime": 20.0,
        "EchoTrainLength": 1,
        "FlipAngle": 80.0,
        "HighBit": 11,
        "ImageOrientationPatient": [
          0.99949445970725,
          0.00849382184882,
          0.03063788512479,
          0.02979139653939,
          0.08635189411508,
          -0.9958191718756
        ],
        "ImagePositionPatient": [
          -742.80263397887,
          -115.91705508054,
          675.4338242904
        ],
        "ImageType": [
          "ORIGINAL",
          "PRIMARY",
          "M",
          "MB",
          "ND",
          "MOSAIC"
        ],
        "ImagedNucleus": "1H",
        "ImagingFrequency": 297.205429,
        "InPlanePhaseEncodingDirection": "COL",
        "LargestImagePixelValue": 4095,
        "MRAcquisitionType": "2D",
        "MagneticFieldStrength": 6.98,
        "Manufacturer": "SIEMENS",
        "ManufacturerModelName": "Investigational_Device_7T",
        "Modality": "MR",
        "NumberOfAverages": 1.0,
        "NumberOfPhaseEncodingSteps": 141,
        "PercentPhaseFieldOfView": 100.0,
        "PercentSampling": 100.0,
        "PerformedProcedureStepStartTime": "101624.203000",
        "PhotometricInterpretation": "MONOCHROME2",
        "PixelBandwidth": 1400.0,
        "PixelRepresentation": 0,
        "PixelSpacing": [
          1.0957447290421,
          1.0957447290421
        ],
        "ProtocolName": "cmrr_mbep2d_bold_AP_run1",
        "RepetitionTime": 2600.0,
        "Rows": 1316,
        "SAR": 0.09225532207631,
        "SamplesPerPixel": 1,
        "ScanOptions": [
          "PFP",
          "FS"
        ],
        "ScanningSequence": "EP",
        "SequenceName": "epfid2d1_188",
        "SequenceVariant": [
          "SK",
          "SS"
        ],
        "SeriesDescription": "cmrr_mbep2d_bold_AP_run1",
        "SeriesNumber": 10,
        "SeriesTime": "105107.312000",
        "SliceLocation": -49.107238697086,
        "SliceThickness": 1.1000000238419,
        "SmallestImagePixelValue": 0,
        "SoftwareVersions": "syngo MR B17",
        "SpacingBetweenSlices": 1.0999993040712,
        "SpecificCharacterSet": "ISO_IR 100",
        "StudyID": "1",
        "StudyTime": "101624.031000",
        "TransmitCoilName": "32Ch_Head_7T",
        "VariableFlipAngleFlag": "N",
        "WindowCenterWidthExplanation": "Algo1",
        "dBdt": 0.0
      },
      "slices": {}
    },
    "modality": "bold",
    "run_id": 1,
    "session_id": "SES05",
    "subject_id": "S02",
    "task_id": "auditory",
    "time": {
      "samples": {
        "AcquisitionNumber": [
          1,
          2,
          3,
          4,
          5,
          6,
          7,
          8,
          9,
          10,
          11,
          12,
          13,
          14,
          15,
          16,
          17,
          18,
          19,
          20,
          21,
          22,
          23,
          24,
          25,
          26,
          27,
          28,
          29,
          30,
          31,
          32,
          33,
          34,
          35,
          36,
          37,
          38,
          39,
          40,
          41,
          42,
          43,
          44,
          45,
          46,
          47,
          48,
          49,
          50,
          51,
          52,
          53,
          54,
          55,
          56,
          57,
          58,
          59,
          60,
          61,
          62,
          63,
          64,
          65,
          66,
          67,
          68,
          69,
          70,
          71,
          72,
          73,
          74,
          75,
          76,
          77,
          78,
          79,
          80,
          81,
          82,
          83,
          84,
          85,
          86,
          87,
          88,
          89,
          90,
          91,
          92,
          93,
          94,
          95,
          96,
          97,
          98,
          99,
          100,
          101,
          102,
          103,
          104,
          105,
          106,
          107,
          108,
          109,
          110,
          111,
          112,
          113,
          114,
          115,
          116,
          117,
          118,
          119,
          120,
          121,
          122,
          123,
          124,
          125,
          126,
          127,
          128,
          129,
          130,
          131,
          132,
          133,
          134,
          135,
          136,
          137,
          138,
          139,
          140,
          141,
          142,
          143,
          144,
          145,
          146,
          147,
          148,
          149,
          150,
          151,
          152,
          153,
          154,
          155,
          156,
          157,
          158,
          159,
          160,
          161,
          162,
          163,
          164,
          165,
          166,
          167,
          168,
          169,
          170,
          171,
          172,
          173,
          174,
          175,
          176,
          177,
          178,
          179,
          180,
          181,
          182,
          183,
          184,
          185,
          186,
          187,
          188,
          189,
          190,
          191,
          192,
          193,
          194,
          195,
          196,
          197,
          198,
          199,
          200,
          201,
          202,
          203,
          204,
          205,
          206,
          207,
          208,
          209,
          210,
          211,
          212,
          213,
          214,
          215,
          216
        ],
        "AcquisitionTime": [
          "105054.505000",
          "105057.115000",
          "105059.725000",
          "105102.337500",
          "105104.947500",
          "105107.557500",
          "105110.167500",
          "105112.777500",
          "105115.387500",
          "105118.000000",
          "105120.610000",
          "105123.220000",
          "105125.830000",
          "105128.440000",
          "105131.050000",
          "105133.662500",
          "105136.272500",
          "105138.882500",
          "105141.492500",
          "105144.102500",
          "105146.715000",
          "105149.325000",
          "105151.935000",
          "105154.545000",
          "105157.155000",
          "105159.765000",
          "105202.377500",
          "105204.987500",
          "105207.597500",
          "105210.207500",
          "105212.817500",
          "105215.427500",
          "105218.040000",
          "105220.650000",
          "105223.260000",
          "105225.870000",
          "105228.480000",
          "105231.092500",
          "105233.702500",
          "105236.312500",
          "105238.922500",
          "105241.532500",
          "105244.142500",
          "105246.755000",
          "105249.365000",
          "105251.975000",
          "105254.585000",
          "105257.195000",
          "105259.805000",
          "105302.417500",
          "105305.027500",
          "105307.637500",
          "105310.247500",
          "105312.857500",
          "105315.470000",
          "105318.080000",
          "105320.690000",
          "105323.300000",
          "105325.910000",
          "105328.520000",
          "105331.132500",
          "105333.742500",
          "105336.352500",
          "105338.962500",
          "105341.572500",
          "105344.182500",
          "105346.795000",
          "105349.405000",
          "105352.015000",
          "105354.625000",
          "105357.235000",
          "105359.847500",
          "105402.457500",
          "105405.067500",
          "105407.677500",
          "105410.287500",
          "105412.897500",
          "105415.510000",
          "105418.120000",
          "105420.730000",
          "105423.340000",
          "105425.950000",
          "105428.560000",
          "105431.172500",
          "105433.782500",
          "105436.392500",
          "105439.002500",
          "105441.612500",
          "105444.225000",
          "105446.835000",
          "105449.445000",
          "105452.055000",
          "105454.665000",
          "105457.275000",
          "105459.887500",
          "105502.497500",
          "105505.107500",
          "105507.717500",
          "105510.327500",
          "105512.937500",
          "105515.550000",
          "105518.160000",
          "105520.770000",
          "105523.380000",
          "105525.990000",
          "105528.602500",
          "105531.212500",
          "105533.822500",
          "105536.432500",
          "105539.042500",
          "105541.652500",
          "105544.265000",
          "105546.875000",
          "105549.485000",
          "105552.095000",
          "105554.705000",
          "105557.315000",
          "105559.927500",
          "105602.537500",
          "105605.147500",
          "105607.757500",
          "105610.367500",
          "105612.980000",
          "105615.590000",
          "105618.200000",
          "105620.810000",
          "105623.420000",
          "105626.030000",
          "105628.642500",
          "105631.252500",
          "105633.862500",
          "105636.472500",
          "105639.082500",
          "105641.692500",
          "105644.305000",
          "105646.915000",
          "105649.525000",
          "105652.135000",
          "105654.745000",
          "105657.357500",
          "105659.967500",
          "105702.577500",
          "105705.187500",
          "105707.797500",
          "105710.407500",
          "105713.020000",
          "105715.630000",
          "105718.240000",
          "105720.850000",
          "105723.460000",
          "105726.070000",
          "105728.682500",
          "105731.292500",
          "105733.902500",
          "105736.512500",
          "105739.122500",
          "105741.735000",
          "105744.345000",
          "105746.955000",
          "105749.565000",
          "105752.175000",
          "105754.785000",
          "105757.397500",
          "105800.007500",
          "105802.617500",
          "105805.227500",
          "105807.837500",
          "105810.447500",
          "105813.060000",
          "105815.670000",
          "105818.280000",
          "105820.890000",
          "105823.500000",
          "105826.112500",
          "105828.722500",
          "105831.332500",
          "105833.942500",
          "105836.552500",
          "105839.162500",
          "105841.775000",
          "105844.385000",
          "105846.995000",
          "105849.605000",
          "105852.215000",
          "105854.825000",
          "105857.437500",
          "105900.047500",
          "105902.657500",
          "105905.267500",
          "105907.877500",
          "105910.490000",
          "105913.100000",
          "105915.710000",
          "105918.320000",
          "105920.930000",
          "105923.540000",
          "105926.152500",
          "105928.762500",
          "105931.372500",
          "105933.982500",
          "105936.592500",
          "105939.202500",
          "105941.815000",
          "105944.425000",
          "105947.035000",
          "105949.645000",
          "105952.255000",
          "105954.867500",
          "105957.477500",
          "110000.087500",
          "110002.697500",
          "110005.307500",
          "110007.917500",
          "110010.530000",
          "110013.140000",
          "110015.750000"
        ],
        "ContentTime": [
          "105107.312000",
          "105107.312000",
          "105107.312000",
          "105107.312000",
          "105207.281000",
          "105207.296000",
          "105207.296000",
          "105207.296000",
          "105207.296000",
          "105207.296000",
          "105207.296000",
          "105207.296000",
          "105207.312000",
          "105207.312000",
          "105207.312000",
          "105207.328000",
          "105207.328000",
          "105207.328000",
          "105207.328000",
          "105207.328000",
          "105207.328000",
          "105207.328000",
          "105207.328000",
          "105207.343000",
          "105207.343000",
          "105207.343000",
          "105207.343000",
          "105307.281000",
          "105307.296000",
          "105307.296000",
          "105307.296000",
          "105307.296000",
          "105307.296000",
          "105307.296000",
          "105307.296000",
          "105307.312000",
          "105307.312000",
          "105307.312000",
          "105307.312000",
          "105307.312000",
          "105307.312000",
          "105307.312000",
          "105307.312000",
          "105307.328000",
          "105307.328000",
          "105307.328000",
          "105307.328000",
          "105307.328000",
          "105307.343000",
          "105307.343000",
          "105407.281000",
          "105407.296000",
          "105407.296000",
          "105407.296000",
          "105407.296000",
          "105407.296000",
          "105407.312000",
          "105407.312000",
          "105407.312000",
          "105407.312000",
          "105407.312000",
          "105407.312000",
          "105407.312000",
          "105407.312000",
          "105407.328000",
          "105407.328000",
          "105407.328000",
          "105407.328000",
          "105407.328000",
          "105407.343000",
          "105407.343000",
          "105407.343000",
          "105407.343000",
          "105507.281000",
          "105507.296000",
          "105507.296000",
          "105507.296000",
          "105507.296000",
          "105507.312000",
          "105507.312000",
          "105507.312000",
          "105507.312000",
          "105507.312000",
          "105507.312000",
          "105507.328000",
          "105507.328000",
          "105507.328000",
          "105507.328000",
          "105507.328000",
          "105507.328000",
          "105507.328000",
          "105507.328000",
          "105507.343000",
          "105507.343000",
          "105507.343000",
          "105507.343000",
          "105607.281000",
          "105607.296000",
          "105607.296000",
          "105607.296000",
          "105607.312000",
          "105607.312000",
          "105607.312000",
          "105607.312000",
          "105607.312000",
          "105607.312000",
          "105607.312000",
          "105607.312000",
          "105607.328000",
          "105607.328000",
          "105607.328000",
          "105607.328000",
          "105607.328000",
          "105607.328000",
          "105607.328000",
          "105607.343000",
          "105607.343000",
          "105607.343000",
          "105607.343000",
          "105707.281000",
          "105707.296000",
          "105707.296000",
          "105707.296000",
          "105707.296000",
          "105707.296000",
          "105707.312000",
          "105707.312000",
          "105707.312000",
          "105707.312000",
          "105707.312000",
          "105707.312000",
          "105707.312000",
          "105707.312000",
          "105707.328000",
          "105707.328000",
          "105707.328000",
          "105707.328000",
          "105707.328000",
          "105707.328000",
          "105707.328000",
          "105707.343000",
          "105707.343000",
          "105807.281000",
          "105807.281000",
          "105807.296000",
          "105807.312000",
          "105807.312000",
          "105807.312000",
          "105807.312000",
          "105807.328000",
          "105807.328000",
          "105807.328000",
          "105807.328000",
          "105807.328000",
          "105807.328000",
          "105807.328000",
          "105807.328000",
          "105807.343000",
          "105807.343000",
          "105807.343000",
          "105807.343000",
          "105807.343000",
          "105807.343000",
          "105807.343000",
          "105807.359000",
          "105907.281000",
          "105907.296000",
          "105907.296000",
          "105907.296000",
          "105907.296000",
          "105907.312000",
          "105907.312000",
          "105907.312000",
          "105907.328000",
          "105907.328000",
          "105907.328000",
          "105907.328000",
          "105907.328000",
          "105907.328000",
          "105907.343000",
          "105907.343000",
          "105907.343000",
          "105907.343000",
          "105907.343000",
          "105907.343000",
          "105907.343000",
          "105907.343000",
          "105907.359000",
          "110007.281000",
          "110007.296000",
          "110007.296000",
          "110007.296000",
          "110007.296000",
          "110007.312000",
          "110007.312000",
          "110007.312000",
          "110007.312000",
          "110007.312000",
          "110007.312000",
          "110007.312000",
          "110007.328000",
          "110007.328000",
          "110007.328000",
          "110007.328000",
          "110007.328000",
          "110007.328000",
          "110007.328000",
          "110007.343000",
          "110007.343000",
          "110007.343000",
          "110007.343000",
          "110022.640000",
          "110022.640000",
          "110022.640000",
          "110022.640000",
          "110022.640000"
        ],
        "InstanceCreationTime": [
          "105107.312000",
          "105107.312000",
          "105107.312000",
          "105107.312000",
          "105207.281000",
          "105207.296000",
          "105207.296000",
          "105207.296000",
          "105207.296000",
          "105207.296000",
          "105207.296000",
          "105207.296000",
          "105207.312000",
          "105207.312000",
          "105207.312000",
          "105207.328000",
          "105207.328000",
          "105207.328000",
          "105207.328000",
          "105207.328000",
          "105207.328000",
          "105207.328000",
          "105207.328000",
          "105207.343000",
          "105207.343000",
          "105207.343000",
          "105207.343000",
          "105307.281000",
          "105307.296000",
          "105307.296000",
          "105307.296000",
          "105307.296000",
          "105307.296000",
          "105307.296000",
          "105307.296000",
          "105307.312000",
          "105307.312000",
          "105307.312000",
          "105307.312000",
          "105307.312000",
          "105307.312000",
          "105307.312000",
          "105307.312000",
          "105307.328000",
          "105307.328000",
          "105307.328000",
          "105307.328000",
          "105307.328000",
          "105307.343000",
          "105307.343000",
          "105407.281000",
          "105407.296000",
          "105407.296000",
          "105407.296000",
          "105407.296000",
          "105407.296000",
          "105407.312000",
          "105407.312000",
          "105407.312000",
          "105407.312000",
          "105407.312000",
          "105407.312000",
          "105407.312000",
          "105407.312000",
          "105407.328000",
          "105407.328000",
          "105407.328000",
          "105407.328000",
          "105407.328000",
          "105407.343000",
          "105407.343000",
          "105407.343000",
          "105407.343000",
          "105507.281000",
          "105507.296000",
          "105507.296000",
          "105507.296000",
          "105507.296000",
          "105507.312000",
          "105507.312000",
          "105507.312000",
          "105507.312000",
          "105507.312000",
          "105507.312000",
          "105507.328000",
          "105507.328000",
          "105507.328000",
          "105507.328000",
          "105507.328000",
          "105507.328000",
          "105507.328000",
          "105507.328000",
          "105507.343000",
          "105507.343000",
          "105507.343000",
          "105507.343000",
          "105607.281000",
          "105607.296000",
          "105607.296000",
          "105607.296000",
          "105607.312000",
          "105607.312000",
          "105607.312000",
          "105607.312000",
          "105607.312000",
          "105607.312000",
          "105607.312000",
          "105607.312000",
          "105607.328000",
          "105607.328000",
          "105607.328000",
          "105607.328000",
          "105607.328000",
          "105607.328000",
          "105607.328000",
          "105607.343000",
          "105607.343000",
          "105607.343000",
          "105607.343000",
          "105707.281000",
          "105707.296000",
          "105707.296000",
          "105707.296000",
          "105707.296000",
          "105707.296000",
          "105707.312000",
          "105707.312000",
          "105707.312000",
          "105707.312000",
          "105707.312000",
          "105707.312000",
          "105707.312000",
          "105707.312000",
          "105707.328000",
          "105707.328000",
          "105707.328000",
          "105707.328000",
          "105707.328000",
          "105707.328000",
          "105707.328000",
          "105707.343000",
          "105707.343000",
          "105807.281000",
          "105807.281000",
          "105807.296000",
          "105807.312000",
          "105807.312000",
          "105807.312000",
          "105807.312000",
          "105807.328000",
          "105807.328000",
          "105807.328000",
          "105807.328000",
          "105807.328000",
          "105807.328000",
          "105807.328000",
          "105807.328000",
          "105807.343000",
          "105807.343000",
          "105807.343000",
          "105807.343000",
          "105807.343000",
          "105807.343000",
          "105807.343000",
          "105807.359000",
          "105907.281000",
          "105907.296000",
          "105907.296000",
          "105907.296000",
          "105907.296000",
          "105907.312000",
          "105907.312000",
          "105907.312000",
          "105907.328000",
          "105907.328000",
          "105907.328000",
          "105907.328000",
          "105907.328000",
          "105907.328000",
          "105907.343000",
          "105907.343000",
          "105907.343000",
          "105907.343000",
          "105907.343000",
          "105907.343000",
          "105907.343000",
          "105907.343000",
          "105907.359000",
          "110007.281000",
          "110007.296000",
          "110007.296000",
          "110007.296000",
          "110007.296000",
          "110007.312000",
          "110007.312000",
          "110007.312000",
          "110007.312000",
          "110007.312000",
          "110007.312000",
          "110007.312000",
          "110007.328000",
          "110007.328000",
          "110007.328000",
          "110007.328000",
          "110007.328000",
          "110007.328000",
          "110007.328000",
          "110007.343000",
          "110007.343000",
          "110007.343000",
          "110007.343000",
          "110022.640000",
          "110022.640000",
          "110022.640000",
          "110022.640000",
          "110022.640000"
        ],
        "InstanceNumber": [
          1,
          2,
          3,
          4,
          5,
          6,
          7,
          8,
          9,
          10,
          11,
          12,
          13,
          14,
          15,
          16,
          17,
          18,
          19,
          20,
          21,
          22,
          23,
          24,
          25,
          26,
          27,
          28,
          29,
          30,
          31,
          32,
          33,
          34,
          35,
          36,
          37,
          38,
          39,
          40,
          41,
          42,
          43,
          44,
          45,
          46,
          47,
          48,
          49,
          50,
          51,
          52,
          53,
          54,
          55,
          56,
          57,
          58,
          59,
          60,
          61,
          62,
          63,
          64,
          65,
          66,
          67,
          68,
          69,
          70,
          71,
          72,
          73,
          74,
          75,
          76,
          77,
          78,
          79,
          80,
          81,
          82,
          83,
          84,
          85,
          86,
          87,
          88,
          89,
          90,
          91,
          92,
          93,
          94,
          95,
          96,
          97,
          98,
          99,
          100,
          101,
          102,
          103,
          104,
          105,
          106,
          107,
          108,
          109,
          110,
          111,
          112,
          113,
          114,
          115,
          116,
          117,
          118,
          119,
          120,
          121,
          122,
          123,
          124,
          125,
          126,
          127,
          128,
          129,
          130,
          131,
          132,
          133,
          134,
          135,
          136,
          137,
          138,
          139,
          140,
          141,
          142,
          143,
          144,
          145,
          146,
          147,
          148,
          149,
          150,
          151,
          152,
          153,
          154,
          155,
          156,
          157,
          158,
          159,
          160,
          161,
          162,
          163,
          164,
          165,
          166,
          167,
          168,
          169,
          170,
          171,
