{
  "aor": 0.0006383333333333333,
  "aqi": 0.014600644907407409,
  "bids_meta": {
    "AcquisitionMatrixPE": 188,
    "AcquisitionNumber": 1,
    "AcquisitionTime": "11:34:20.725000",
    "BandwidthPerPixelPhaseEncode": 19.46,
    "BaseResolution": 188,
    "ConversionSoftware": "dcm2niix",
    "ConversionSoftwareVersion": "v1.0.20180606 GCC4.8.5",
    "DelayTime": 1.2,
    "DerivedVendorReportedEchoSpacing": 0.000820013,
    "DeviceSerialNumber": "18930",
    "DwellTime": 1.9e-06,
    "EchoTime": 0.02,
    "EffectiveEchoSpacing": 0.000273338,
    "FlipAngle": 80,
    "ImageComments": "Unaliased_MB2_PE2",
    "ImageOrientationPatientDICOM": [
      0.999494,
      0.00849382,
      0.0306379,
      0.0297914,
      0.0863519,
      -0.995819
    ],
    "ImageType": [
      "ORIGINAL",
      "PRIMARY",
      "M",
      "MB",
      "ND",
      "MOSAIC"
    ],
    "InPlanePhaseEncodingDirectionDICOM": "COL",
    "InstitutionAddress": "Oxfordlaan_55_Maastricht_Limburg_NL_6229_EV",
    "InstitutionName": "Scannexus",
    "InstitutionalDepartmentName": "MRI_7T",
    "MRAcquisitionType": "2D",
    "MagneticFieldStrength": 6.98,
    "Manufacturer": "Siemens",
    "ManufacturersModelName": "Investigational_Device_7T",
    "Modality": "MR",
    "MultibandAccelerationFactor": 2,
    "ParallelReductionFactorInPlane": 3,
    "PartialFourier": 0.75,
    "PatientPosition": "HFS",
    "PercentPhaseFOV": 100,
    "PhaseEncodingDirection": "j",
    "PhaseEncodingSteps": 141,
    "PhaseResolution": 1,
    "PixelBandwidth": 1400,
    "ProcedureStepDescription": "FeDem_fMRI",
    "ProtocolName": "cmrr_mbep2d_bold_AP_run5",
    "PulseSequenceDetails": "%CustomerSeq%_cmrr_mbep2d_bold",
    "ReceiveCoilName": "32Ch_Head_7T",
    "ReconMatrixPE": 188,
    "RepetitionTime": 2.6,
    "SAR": 0.0915585,
    "ScanOptions": "PFP_FS",
    "ScanningSequence": "EP",
    "SequenceName": "epfid2d1_188",
    "SequenceVariant": "SK_SS",
    "SeriesDescription": "cmrr_mbep2d_bold_AP_run5",
    "SeriesNumber": 14,
    "ShimSetting": [
      140,
      -56,
      513,
      496,
      73,
      -8,
      -289,
      115
    ],
    "SliceThickness": 1.1,
    "SliceTiming": [
      0,
      0.735,
      0.0625,
      0.795,
      0.1225,
      0.855,
      0.185,
      0.9175,
      0.245,
      0.9775,
      0.305,
      1.04,
      0.3675,
      1.1,
      0.4275,
      1.1625,
      0.49,
      1.2225,
      0.55,
      1.2825,
      0.6125,
      1.345,
      0.6725,
      0,
      0.735,
      0.0625,
      0.795,
      0.1225,
      0.855,
      0.185,
      0.9175,
      0.245,
      0.9775,
      0.305,
      1.04,
      0.3675,
      1.1,
      0.4275,
      1.1625,
      0.49,
      1.2225,
      0.55,
      1.2825,
      0.6125,
      1.345,
      0.6725
    ],
    "SoftwareVersions": "syngo_MR_B17",
    "SpacingBetweenSlices": 1.1,
    "StationName": "MRC18930",
    "TaskName": "auditory",
    "TotalReadoutTime": 0.0511141,
    "TxRefAmp": 255,
    "dataset": "ds001942",
    "dcmmeta_affine": [
      [
        -1.0951907634735107,
        0.03264376521110535,
        0.012214337475597858,
        100.59956359863281
      ],
      [
        -0.00930706039071083,
        0.09461963176727295,
        -1.0958505868911743,
        39.60852813720703
      ],
      [
        0.03357130289077759,
        1.0911636352539062,
        0.09466065466403961,
        -125.09583282470703
      ],
      [
        0.0,
        0.0,
        0.0,
        1.0
      ]
    ],
    "dcmmeta_reorient_transform": [
      [
        0.0,
        -1.0,
        0.0,
        187.0
      ],
      [
        1.0,
        0.0,
        0.0,
        0.0
      ],
      [
        0.0,
        0.0,
        1.0,
        0.0
      ],
      [
        0.0,
        0.0,
        0.0,
        1.0
      ]
    ],
    "dcmmeta_shape": [
      188,
      188,
      46,
      216
    ],
    "dcmmeta_slice_dim": 2,
    "dcmmeta_version": 0.6,
    "global": {
      "const": {
        "AcquisitionMatrix": [
          188,
          0,
          0,
          188
        ],
        "AngioFlag": "N",
        "BitsAllocated": 16,
        "BitsStored": 12,
        "Columns": 1316,
        "EchoNumbers": 1,
        "EchoTime": 20.0,
        "EchoTrainLength": 1,
        "FlipAngle": 80.0,
        "HighBit": 11,
        "ImageOrientationPatient": [
          0.99949445970725,
          0.00849382184882,
          0.03063788512479,
          0.02979139653939,
          0.08635189411508,
          -0.9958191718756
        ],
        "ImagePositionPatient": [
          -742.80263397887,
          -115.91705508054,
          675.4338242904
        ],
        "ImageType": [
          "ORIGINAL",
          "PRIMARY",
          "M",
          "MB",
          "ND",
          "MOSAIC"
        ],
        "ImagedNucleus": "1H",
        "ImagingFrequency": 297.205456,
        "InPlanePhaseEncodingDirection": "COL",
        "LargestImagePixelValue": 4095,
        "MRAcquisitionType": "2D",
        "MagneticFieldStrength": 6.98,
        "Manufacturer": "SIEMENS",
        "ManufacturerModelName": "Investigational_Device_7T",
        "Modality": "MR",
        "NumberOfAverages": 1.0,
        "NumberOfPhaseEncodingSteps": 141,
        "PercentPhaseFieldOfView": 100.0,
        "PercentSampling": 100.0,
        "PerformedProcedureStepStartTime": "101624.203000",
        "PhotometricInterpretation": "MONOCHROME2",
        "PixelBandwidth": 1400.0,
        "PixelRepresentation": 0,
        "PixelSpacing": [
          1.0957447290421,
          1.0957447290421
        ],
        "ProtocolName": "cmrr_mbep2d_bold_AP_run5",
        "RepetitionTime": 2600.0,
        "Rows": 1316,
        "SAR": 0.09155853433801,
        "SamplesPerPixel": 1,
        "ScanOptions": [
          "PFP",
          "FS"
        ],
        "ScanningSequence": "EP",
        "SequenceName": "epfid2d1_188",
        "SequenceVariant": [
          "SK",
          "SS"
        ],
        "SeriesDescription": "cmrr_mbep2d_bold_AP_run5",
        "SeriesNumber": 14,
        "SeriesTime": "113527.328000",
        "SliceLocation": -49.107238697086,
        "SliceThickness": 1.1000000238419,
        "SmallestImagePixelValue": 0,
        "SoftwareVersions": "syngo MR B17",
        "SpacingBetweenSlices": 1.0999993040712,
        "SpecificCharacterSet": "ISO_IR 100",
        "StudyID": "1",
        "StudyTime": "101624.031000",
        "TransmitCoilName": "32Ch_Head_7T",
        "VariableFlipAngleFlag": "N",
        "WindowCenterWidthExplanation": "Algo1",
        "dBdt": 0.0
      },
      "slices": {}
    },
    "modality": "bold",
    "run_id": 5,
    "session_id": "SES05",
    "subject_id": "S02",
    "task_id": "auditory",
    "time": {
      "samples": {
        "AcquisitionNumber": [
          1,
          2,
          3,
          4,
          5,
          6,
          7,
          8,
          9,
          10,
          11,
          12,
          13,
          14,
          15,
          16,
          17,
          18,
          19,
          20,
          21,
          22,
          23,
          24,
          25,
          26,
          27,
          28,
          29,
          30,
          31,
          32,
          33,
          34,
          35,
          36,
          37,
          38,
          39,
          40,
          41,
          42,
          43,
          44,
          45,
          46,
          47,
          48,
          49,
          50,
          51,
          52,
          53,
          54,
          55,
          56,
          57,
          58,
          59,
          60,
          61,
          62,
          63,
          64,
          65,
          66,
          67,
          68,
          69,
          70,
          71,
          72,
          73,
          74,
          75,
          76,
          77,
          78,
          79,
          80,
          81,
          82,
          83,
          84,
          85,
          86,
          87,
          88,
          89,
          90,
          91,
          92,
          93,
          94,
          95,
          96,
          97,
          98,
          99,
          100,
          101,
          102,
          103,
          104,
          105,
          106,
          107,
          108,
          109,
          110,
          111,
          112,
          113,
          114,
          115,
          116,
          117,
          118,
          119,
          120,
          121,
          122,
          123,
          124,
          125,
          126,
          127,
          128,
          129,
          130,
          131,
          132,
          133,
          134,
          135,
          136,
          137,
          138,
          139,
          140,
          141,
          142,
          143,
          144,
          145,
          146,
          147,
          148,
          149,
          150,
          151,
          152,
          153,
          154,
          155,
          156,
          157,
          158,
          159,
          160,
          161,
          162,
          163,
          164,
          165,
          166,
          167,
          168,
          169,
          170,
          171,
          172,
          173,
          174,
          175,
          176,
          177,
          178,
          179,
          180,
          181,
          182,
          183,
          184,
          185,
          186,
          187,
          188,
          189,
          190,
          191,
          192,
          193,
          194,
          195,
          196,
          197,
          198,
          199,
          200,
          201,
          202,
          203,
          204,
          205,
          206,
          207,
          208,
          209,
          210,
          211,
          212,
          213,
          214,
          215,
          216
        ],
        "AcquisitionTime": [
          "113420.725000",
          "113423.335000",
          "113425.947500",
          "113428.557500",
          "113431.167500",
          "113433.777500",
          "113436.387500",
          "113438.997500",
          "113441.610000",
          "113444.220000",
          "113446.830000",
          "113449.440000",
          "113452.050000",
          "113454.662500",
          "113457.272500",
          "113459.882500",
          "113502.492500",
          "113505.102500",
          "113507.712500",
          "113510.325000",
          "113512.935000",
          "113515.545000",
          "113518.155000",
          "113520.765000",
          "113523.375000",
          "113525.987500",
          "113528.597500",
          "113531.207500",
          "113533.817500",
          "113536.427500",
          "113539.040000",
          "113541.650000",
          "113544.260000",
          "113546.870000",
          "113549.480000",
          "113552.090000",
          "113554.702500",
          "113557.312500",
          "113559.922500",
          "113602.532500",
          "113605.142500",
          "113607.752500",
          "113610.365000",
          "113612.975000",
          "113615.585000",
          "113618.195000",
          "113620.805000",
          "113623.417500",
          "113626.027500",
          "113628.637500",
          "113631.247500",
          "113633.857500",
          "113636.467500",
          "113639.080000",
          "113641.690000",
          "113644.300000",
          "113646.910000",
          "113649.520000",
          "113652.130000",
          "113654.742500",
          "113657.352500",
          "113659.962500",
          "113702.572500",
          "113705.182500",
          "113707.795000",
          "113710.405000",
          "113713.015000",
          "113715.625000",
          "113718.235000",
          "113720.845000",
          "113723.457500",
          "113726.067500",
          "113728.677500",
          "113731.287500",
          "113733.897500",
          "113736.507500",
          "113739.120000",
          "113741.730000",
          "113744.340000",
          "113746.950000",
          "113749.560000",
          "113752.172500",
          "113754.782500",
          "113757.392500",
          "113800.002500",
          "113802.612500",
          "113805.222500",
          "113807.835000",
          "113810.445000",
          "113813.055000",
          "113815.665000",
          "113818.275000",
          "113820.885000",
          "113823.497500",
          "113826.107500",
          "113828.717500",
          "113831.327500",
          "113833.937500",
          "113836.550000",
          "113839.160000",
          "113841.770000",
          "113844.380000",
          "113846.990000",
          "113849.600000",
          "113852.212500",
          "113854.822500",
          "113857.432500",
          "113900.042500",
          "113902.652500",
          "113905.262500",
          "113907.875000",
          "113910.485000",
          "113913.095000",
          "113915.705000",
          "113918.315000",
          "113920.927500",
          "113923.537500",
          "113926.147500",
          "113928.757500",
          "113931.367500",
          "113933.977500",
          "113936.590000",
          "113939.200000",
          "113941.810000",
          "113944.420000",
          "113947.030000",
          "113949.640000",
          "113952.252500",
          "113954.862500",
          "113957.472500",
          "114000.082500",
          "114002.692500",
          "114005.305000",
          "114007.915000",
          "114010.525000",
          "114013.135000",
          "114015.745000",
          "114018.355000",
          "114020.967500",
          "114023.577500",
          "114026.187500",
          "114028.797500",
          "114031.407500",
          "114034.017500",
          "114036.630000",
          "114039.240000",
          "114041.850000",
          "114044.460000",
          "114047.070000",
          "114049.682500",
          "114052.292500",
          "114054.902500",
          "114057.512500",
          "114100.122500",
          "114102.732500",
          "114105.345000",
          "114107.955000",
          "114110.565000",
          "114113.175000",
          "114115.785000",
          "114118.395000",
          "114121.007500",
          "114123.617500",
          "114126.227500",
          "114128.837500",
          "114131.447500",
          "114134.060000",
          "114136.670000",
          "114139.280000",
          "114141.890000",
          "114144.500000",
          "114147.110000",
          "114149.722500",
          "114152.332500",
          "114154.942500",
          "114157.552500",
          "114200.162500",
          "114202.772500",
          "114205.385000",
          "114207.995000",
          "114210.605000",
          "114213.215000",
          "114215.825000",
          "114218.437500",
          "114221.047500",
          "114223.657500",
          "114226.267500",
          "114228.877500",
          "114231.487500",
          "114234.100000",
          "114236.710000",
          "114239.320000",
          "114241.930000",
          "114244.540000",
          "114247.150000",
          "114249.762500",
          "114252.372500",
          "114254.982500",
          "114257.592500",
          "114300.202500",
          "114302.815000",
          "114305.425000",
          "114308.035000",
          "114310.645000",
          "114313.255000",
          "114315.865000",
          "114318.477500",
          "114321.087500",
          "114323.697500",
          "114326.307500",
          "114328.917500",
          "114331.527500",
          "114334.140000",
          "114336.750000",
          "114339.360000",
          "114341.970000"
        ],
        "ContentTime": [
          "113527.328000",
          "113527.328000",
          "113527.328000",
          "113527.328000",
          "113527.343000",
          "113527.343000",
          "113527.343000",
          "113527.343000",
          "113527.343000",
          "113527.343000",
          "113527.343000",
          "113527.359000",
          "113527.359000",
          "113527.359000",
          "113527.359000",
          "113527.359000",
          "113527.375000",
          "113527.375000",
          "113527.375000",
          "113527.375000",
          "113527.375000",
          "113527.375000",
          "113527.375000",
          "113527.390000",
          "113527.390000",
          "113627.296000",
          "113627.312000",
          "113627.312000",
          "113627.312000",
          "113627.312000",
          "113627.312000",
          "113627.312000",
          "113627.312000",
          "113627.328000",
          "113627.328000",
          "113627.328000",
          "113627.328000",
          "113627.328000",
          "113627.328000",
          "113627.328000",
          "113627.328000",
          "113627.343000",
          "113627.343000",
          "113627.343000",
          "113627.343000",
          "113627.359000",
          "113627.359000",
          "113627.359000",
          "113727.296000",
          "113727.312000",
          "113727.312000",
          "113727.312000",
          "113727.312000",
          "113727.312000",
          "113727.312000",
          "113727.312000",
          "113727.328000",
          "113727.328000",
          "113727.328000",
          "113727.328000",
          "113727.328000",
          "113727.328000",
          "113727.328000",
          "113727.328000",
          "113727.343000",
          "113727.343000",
          "113727.343000",
          "113727.343000",
          "113727.343000",
          "113727.343000",
          "113727.343000",
          "113827.296000",
          "113827.312000",
          "113827.312000",
          "113827.312000",
          "113827.312000",
          "113827.312000",
          "113827.312000",
          "113827.312000",
          "113827.328000",
          "113827.328000",
          "113827.328000",
          "113827.328000",
          "113827.328000",
          "113827.328000",
          "113827.328000",
          "113827.328000",
          "113827.343000",
          "113827.343000",
          "113827.343000",
          "113827.343000",
          "113827.343000",
          "113827.359000",
          "113827.359000",
          "113927.296000",
          "113927.296000",
          "113927.312000",
          "113927.312000",
          "113927.312000",
          "113927.312000",
          "113927.328000",
          "113927.328000",
          "113927.328000",
          "113927.328000",
          "113927.328000",
          "113927.328000",
          "113927.328000",
          "113927.343000",
          "113927.343000",
          "113927.343000",
          "113927.343000",
          "113927.343000",
          "113927.343000",
          "113927.343000",
          "113927.359000",
          "113927.359000",
          "113927.359000",
          "114027.296000",
          "114027.312000",
          "114027.312000",
          "114027.312000",
          "114027.312000",
          "114027.328000",
          "114027.328000",
          "114027.328000",
          "114027.328000",
          "114027.328000",
          "114027.328000",
          "114027.328000",
          "114027.343000",
          "114027.343000",
          "114027.343000",
          "114027.343000",
          "114027.343000",
          "114027.343000",
          "114027.343000",
          "114027.359000",
          "114027.359000",
          "114027.359000",
          "114027.359000",
          "114047.296000",
          "114047.312000",
          "114047.312000",
          "114047.312000",
          "114047.312000",
          "114047.312000",
          "114047.312000",
          "114047.328000",
          "114147.296000",
          "114147.296000",
          "114147.312000",
          "114147.312000",
          "114147.312000",
          "114147.312000",
          "114147.328000",
          "114147.328000",
          "114147.328000",
          "114147.328000",
          "114147.328000",
          "114147.328000",
          "114147.328000",
          "114147.343000",
          "114147.343000",
          "114147.343000",
          "114147.343000",
          "114147.343000",
          "114147.343000",
          "114147.343000",
          "114147.359000",
          "114147.359000",
          "114147.359000",
          "114247.296000",
          "114247.312000",
          "114247.312000",
          "114247.312000",
          "114247.312000",
          "114247.312000",
          "114247.312000",
          "114247.312000",
          "114247.312000",
          "114247.328000",
          "114247.328000",
          "114247.328000",
          "114247.328000",
          "114247.328000",
          "114247.328000",
          "114247.328000",
          "114247.328000",
          "114247.343000",
          "114247.343000",
          "114247.359000",
          "114247.359000",
          "114247.359000",
          "114247.359000",
          "114347.296000",
          "114347.312000",
          "114347.312000",
          "114347.312000",
          "114347.312000",
          "114347.328000",
          "114347.328000",
          "114347.328000",
          "114347.328000",
          "114347.328000",
          "114347.328000",
          "114347.343000",
          "114347.343000",
          "114347.343000",
          "114347.343000",
          "114347.343000",
          "114347.343000",
          "114347.359000",
          "114347.359000",
          "114347.359000",
          "114347.359000",
          "114348.625000"
        ],
        "InstanceCreationTime": [
          "113527.328000",
          "113527.328000",
          "113527.328000",
          "113527.328000",
          "113527.343000",
          "113527.343000",
          "113527.343000",
          "113527.343000",
          "113527.343000",
          "113527.343000",
          "113527.343000",
          "113527.359000",
          "113527.359000",
          "113527.359000",
          "113527.359000",
          "113527.359000",
          "113527.375000",
          "113527.375000",
          "113527.375000",
          "113527.375000",
          "113527.375000",
          "113527.375000",
          "113527.375000",
          "113527.390000",
          "113527.390000",
          "113627.296000",
          "113627.312000",
          "113627.312000",
          "113627.312000",
          "113627.312000",
          "113627.312000",
          "113627.312000",
          "113627.312000",
          "113627.328000",
          "113627.328000",
          "113627.328000",
          "113627.328000",
          "113627.328000",
          "113627.328000",
          "113627.328000",
          "113627.328000",
          "113627.343000",
          "113627.343000",
          "113627.343000",
          "113627.343000",
          "113627.359000",
          "113627.359000",
          "113627.359000",
          "113727.296000",
          "113727.312000",
          "113727.312000",
          "113727.312000",
          "113727.312000",
          "113727.312000",
          "113727.312000",
          "113727.312000",
          "113727.328000",
          "113727.328000",
          "113727.328000",
          "113727.328000",
          "113727.328000",
          "113727.328000",
          "113727.328000",
          "113727.328000",
          "113727.343000",
          "113727.343000",
          "113727.343000",
          "113727.343000",
          "113727.343000",
          "113727.343000",
          "113727.343000",
          "113827.296000",
          "113827.312000",
          "113827.312000",
          "113827.312000",
          "113827.312000",
          "113827.312000",
          "113827.312000",
          "113827.312000",
          "113827.328000",
          "113827.328000",
          "113827.328000",
          "113827.328000",
          "113827.328000",
          "113827.328000",
          "113827.328000",
          "113827.328000",
          "113827.343000",
          "113827.343000",
          "113827.343000",
          "113827.343000",
          "113827.343000",
          "113827.359000",
          "113827.359000",
          "113927.296000",
          "113927.296000",
          "113927.312000",
          "113927.312000",
          "113927.312000",
          "113927.312000",
          "113927.328000",
          "113927.328000",
          "113927.328000",
          "113927.328000",
          "113927.328000",
          "113927.328000",
          "113927.328000",
          "113927.343000",
          "113927.343000",
          "113927.343000",
          "113927.343000",
          "113927.343000",
          "113927.343000",
          "113927.343000",
          "113927.359000",
          "113927.359000",
          "113927.359000",
          "114027.296000",
          "114027.312000",
          "114027.312000",
          "114027.312000",
          "114027.312000",
          "114027.328000",
          "114027.328000",
          "114027.328000",
          "114027.328000",
          "114027.328000",
          "114027.328000",
          "114027.328000",
          "114027.343000",
          "114027.343000",
          "114027.343000",
          "114027.343000",
          "114027.343000",
          "114027.343000",
          "114027.343000",
          "114027.359000",
          "114027.359000",
          "114027.359000",
          "114027.359000",
          "114047.296000",
          "114047.312000",
          "114047.312000",
          "114047.312000",
          "114047.312000",
          "114047.312000",
          "114047.312000",
          "114047.328000",
          "114147.296000",
          "114147.296000",
          "114147.312000",
          "114147.312000",
          "114147.312000",
          "114147.312000",
          "114147.328000",
          "114147.328000",
          "114147.328000",
          "114147.328000",
          "114147.328000",
          "114147.328000",
          "114147.328000",
          "114147.343000",
          "114147.343000",
          "114147.343000",
          "114147.343000",
          "114147.343000",
          "114147.343000",
          "114147.343000",
          "114147.359000",
          "114147.359000",
          "114147.359000",
          "114247.296000",
          "114247.312000",
          "114247.312000",
          "114247.312000",
          "114247.312000",
          "114247.312000",
          "114247.312000",
          "114247.312000",
          "114247.312000",
          "114247.328000",
          "114247.328000",
          "114247.328000",
          "114247.328000",
          "114247.328000",
          "114247.328000",
          "114247.328000",
          "114247.328000",
          "114247.343000",
          "114247.343000",
          "114247.359000",
          "114247.359000",
          "114247.359000",
          "114247.359000",
          "114347.296000",
          "114347.312000",
          "114347.312000",
          "114347.312000",
          "114347.312000",
          "114347.328000",
          "114347.328000",
          "114347.328000",
          "114347.328000",
          "114347.328000",
          "114347.328000",
          "114347.343000",
          "114347.343000",
          "114347.343000",
          "114347.343000",
          "114347.343000",
          "114347.343000",
          "114347.359000",
          "114347.359000",
          "114347.359000",
          "114347.359000",
          "114348.625000"
        ],
        "InstanceNumber": [
          1,
          2,
          3,
          4,
          5,
          6,
          7,
          8,
          9,
          10,
          11,
          12,
          13,
          14,
          15,
          16,
          17,
          18,
          19,
          20,
          21,
          22,
          23,
          24,
          25,
          26,
          27,
          28,
          29,
          30,
          31,
          32,
          33,
          34,
          35,
          36,
          37,
          38,
          39,
          40,
          41,
          42,
          43,
          44,
          45,
          46,
          47,
          48,
          49,
          50,
          51,
          52,
          53,
          54,
          55,
          56,
          57,
          58,
          59,
          60,
          61,
          62,
          63,
          64,
          65,
          66,
          67,
          68,
          69,
          70,
          71,
          72,
          73,
          74,
          75,
          76,
          77,
          78,
          79,
          80,
          81,
          82,
          83,
          84,
          85,
          86,
          87,
          88,
          89,
          90,
          91,
          92,
          93,
          94,
          95,
          96,
          97,
          98,
          99,
          100,
          101,
          102,
          103,
          104,
          105,
          106,
          107,
          108,
          109,
          110,
          111,
          112,
          113,
          114,
          115,
          116,
          117,
          118,
          119,
          120,
          121,
          122,
          123,
          124,
          125,
          126,
          127,
          128,
          129,
          130,
          131,
          132,
          133,
          134,
          135,
          136,
          137,
          138,
          139,
          140,
          141,
          142,
          143,
          144,
          145,
          146,
          147,
          148,
          149,
          150,
          151,
          152,
          153,
          154,
          155,
          156,
          157,
          158,
          159,
          160,
          161,
          162,
          163,
          164,
          165,
          166,
          167,
          168,
          169,
          170,
