{
  "aor": 0.0006570270270270271,
  "aqi": 0.012508629054054053,
  "bids_meta": {
    "AcquisitionMatrixPE": 188,
    "AcquisitionNumber": 1,
    "AcquisitionTime": "17:15:18.080000",
    "BandwidthPerPixelPhaseEncode": 19.46,
    "BaseResolution": 188,
    "ConversionSoftware": "dcm2niix",
    "ConversionSoftwareVersion": "v1.0.20180606 GCC4.8.5",
    "DelayTime": 1.2,
    "DerivedVendorReportedEchoSpacing": 0.000820013,
    "DeviceSerialNumber": "18930",
    "DwellTime": 1.9e-06,
    "EchoTime": 0.02,
    "EffectiveEchoSpacing": 0.000273338,
    "FlipAngle": 80,
    "ImageComments": "Unaliased_MB2_PE2",
    "ImageOrientationPatientDICOM": [
      0.997424,
      0.0677674,
      -0.0235157,
      -0.0335272,
      0.150615,
      -0.988024
    ],
    "ImageType": [
      "ORIGINAL",
      "PRIMARY",
      "M",
      "MB",
      "ND",
      "MOSAIC"
    ],
    "InPlanePhaseEncodingDirectionDICOM": "COL",
    "InstitutionAddress": "Oxfordlaan_55_Maastricht_753AAF_Limburg_NL_6229_EV",
    "InstitutionName": "Scannexus",
    "InstitutionalDepartmentName": "MRI_7T",
    "MRAcquisitionType": "2D",
    "MagneticFieldStrength": 6.98,
    "Manufacturer": "Siemens",
    "ManufacturersModelName": "Investigational_Device_7T",
    "Modality": "MR",
    "MultibandAccelerationFactor": 2,
    "ParallelReductionFactorInPlane": 3,
    "PartialFourier": 0.75,
    "PatientPosition": "HFS",
    "PercentPhaseFOV": 100,
    "PhaseEncodingDirection": "j",
    "PhaseEncodingSteps": 141,
    "PhaseResolution": 1,
    "PixelBandwidth": 1400,
    "ProcedureStepDescription": "FeDem_Faruk",
    "ProtocolName": "cmrr_mbep2d_bold_AP_run2",
    "PulseSequenceDetails": "%CustomerSeq%_cmrr_mbep2d_bold",
    "ReceiveCoilName": "32Ch_Head_7T",
    "ReconMatrixPE": 188,
    "RepetitionTime": 2.6,
    "SAR": 0.0616374,
    "ScanOptions": "PFP_FS",
    "ScanningSequence": "EP",
    "SequenceName": "epfid2d1_188",
    "SequenceVariant": "SK_SS",
    "SeriesDescription": "cmrr_mbep2d_bold_AP_run2",
    "SeriesNumber": 13,
    "ShimSetting": [
      123,
      -79,
      487,
      312,
      -62,
      576,
      7,
      43
    ],
    "SliceThickness": 1.1,
    "SliceTiming": [
      0,
      0.735,
      0.0625,
      0.795,
      0.1225,
      0.8575,
      0.185,
      0.9175,
      0.245,
      0.9775,
      0.3075,
      1.04,
      0.3675,
      1.1,
      0.4275,
      1.1625,
      0.49,
      1.2225,
      0.55,
      1.285,
      0.6125,
      1.345,
      0.6725,
      0,
      0.735,
      0.0625,
      0.795,
      0.1225,
      0.8575,
      0.185,
      0.9175,
      0.245,
      0.9775,
      0.3075,
      1.04,
      0.3675,
      1.1,
      0.4275,
      1.1625,
      0.49,
      1.2225,
      0.55,
      1.285,
      0.6125,
      1.345,
      0.6725
    ],
    "SoftwareVersions": "syngo_MR_B17",
    "SpacingBetweenSlices": 1.1,
    "StationName": "MRC18930",
    "TaskName": "auditory",
    "TotalReadoutTime": 0.0511141,
    "TxRefAmp": 210,
    "dataset": "ds001942",
    "dcmmeta_affine": [
      [
        -1.0929220914840698,
        -0.036737244576215744,
        0.06975541263818741,
        99.55953979492188
      ],
      [
        -0.07425578683614731,
        0.1650356501340866,
        -1.084893822669983,
        39.54338836669922
      ],
      [
        -0.025767162442207336,
        1.0826219320297241,
        0.16774903237819672,
        -115.55513000488281
      ],
      [
        0.0,
        0.0,
        0.0,
        1.0
      ]
    ],
    "dcmmeta_reorient_transform": [
      [
        0.0,
        -1.0,
        0.0,
        187.0
      ],
      [
        1.0,
        0.0,
        0.0,
        0.0
      ],
      [
        0.0,
        0.0,
        1.0,
        0.0
      ],
      [
        0.0,
        0.0,
        0.0,
        1.0
      ]
    ],
    "dcmmeta_shape": [
      188,
      188,
      46,
      150
    ],
    "dcmmeta_slice_dim": 2,
    "dcmmeta_version": 0.6,
    "global": {
      "const": {
        "AcquisitionMatrix": [
          188,
          0,
          0,
          188
        ],
        "AngioFlag": "N",
        "BitsAllocated": 16,
        "BitsStored": 12,
        "Columns": 1316,
        "EchoNumbers": 1,
        "EchoTime": 20.0,
        "EchoTrainLength": 1,
        "FlipAngle": 80.0,
        "HighBit": 11,
        "ImageOrientationPatient": [
          0.99742397753531,
          0.06776741630499,
          -0.0235156612705,
          -0.0335271930401,
          0.15061505590442,
          -0.9880238014652
        ],
        "ImagePositionPatient": [
          -688.37791353932,
          -205.36542862854,
          712.02657917517
        ],
        "ImageType": [
          "ORIGINAL",
          "PRIMARY",
          "M",
          "MB",
          "ND",
          "MOSAIC"
        ],
        "ImagedNucleus": "1H",
        "ImagingFrequency": 297.205615,
        "InPlanePhaseEncodingDirection": "COL",
        "LargestImagePixelValue": 4095,
        "MRAcquisitionType": "2D",
        "MagneticFieldStrength": 6.98,
        "Manufacturer": "SIEMENS",
        "ManufacturerModelName": "Investigational_Device_7T",
        "Modality": "MR",
        "NumberOfAverages": 1.0,
        "NumberOfPhaseEncodingSteps": 141,
        "PercentPhaseFieldOfView": 100.0,
        "PercentSampling": 100.0,
        "PerformedProcedureStepStartTime": "164025.968000",
        "PhotometricInterpretation": "MONOCHROME2",
        "PixelBandwidth": 1400.0,
        "PixelRepresentation": 0,
        "PixelSpacing": [
          1.0957447290421,
          1.0957447290421
        ],
        "ProtocolName": "cmrr_mbep2d_bold_AP_run2",
        "RepetitionTime": 2600.0,
        "Rows": 1316,
        "SAR": 0.06163739919767,
        "SamplesPerPixel": 1,
        "ScanOptions": [
          "PFP",
          "FS"
        ],
        "ScanningSequence": "EP",
        "SequenceName": "epfid2d1_188",
        "SequenceVariant": [
          "SK",
          "SS"
        ],
        "SeriesDescription": "cmrr_mbep2d_bold_AP_run2",
        "SeriesNumber": 13,
        "SeriesTime": "171526.109000",
        "SliceLocation": -50.308925679162,
        "SliceThickness": 1.1000000238419,
        "SmallestImagePixelValue": 0,
        "SoftwareVersions": "syngo MR B17",
        "SpacingBetweenSlices": 1.1000000256964,
        "SpecificCharacterSet": "ISO_IR 100",
        "StudyID": "1",
        "StudyTime": "164025.859000",
        "TransmitCoilName": "32Ch_Head_7T",
        "VariableFlipAngleFlag": "N",
        "WindowCenterWidthExplanation": "Algo1",
        "dBdt": 0.0
      },
      "slices": {}
    },
    "modality": "bold",
    "run_id": 2,
    "session_id": "SES03",
    "subject_id": "S01",
    "task_id": "auditory",
    "time": {
      "samples": {
        "AcquisitionNumber": [
          1,
          2,
          3,
          4,
          5,
          6,
          7,
          8,
          9,
          10,
          11,
          12,
          13,
          14,
          15,
          16,
          17,
          18,
          19,
          20,
          21,
          22,
          23,
          24,
          25,
          26,
          27,
          28,
          29,
          30,
          31,
          32,
          33,
          34,
          35,
          36,
          37,
          38,
          39,
          40,
          41,
          42,
          43,
          44,
          45,
          46,
          47,
          48,
          49,
          50,
          51,
          52,
          53,
          54,
          55,
          56,
          57,
          58,
          59,
          60,
          61,
          62,
          63,
          64,
          65,
          66,
          67,
          68,
          69,
          70,
          71,
          72,
          73,
          74,
          75,
          76,
          77,
          78,
          79,
          80,
          81,
          82,
          83,
          84,
          85,
          86,
          87,
          88,
          89,
          90,
          91,
          92,
          93,
          94,
          95,
          96,
          97,
          98,
          99,
          100,
          101,
          102,
          103,
          104,
          105,
          106,
          107,
          108,
          109,
          110,
          111,
          112,
          113,
          114,
          115,
          116,
          117,
          118,
          119,
          120,
          121,
          122,
          123,
          124,
          125,
          126,
          127,
          128,
          129,
          130,
          131,
          132,
          133,
          134,
          135,
          136,
          137,
          138,
          139,
          140,
          141,
          142,
          143,
          144,
          145,
          146,
          147,
          148,
          149,
          150
        ],
        "AcquisitionTime": [
          "171518.080000",
          "171520.692500",
          "171523.302500",
          "171525.912500",
          "171528.522500",
          "171531.132500",
          "171533.742500",
          "171536.355000",
          "171538.965000",
          "171541.575000",
          "171544.185000",
          "171546.795000",
          "171549.405000",
          "171552.017500",
          "171554.627500",
          "171557.237500",
          "171559.847500",
          "171602.457500",
          "171605.070000",
          "171607.680000",
          "171610.290000",
          "171612.900000",
          "171615.510000",
          "171618.120000",
          "171620.732500",
          "171623.342500",
          "171625.952500",
          "171628.562500",
          "171631.172500",
          "171633.782500",
          "171636.395000",
          "171639.005000",
          "171641.615000",
          "171644.225000",
          "171646.835000",
          "171649.447500",
          "171652.057500",
          "171654.667500",
          "171657.277500",
          "171659.887500",
          "171702.497500",
          "171705.110000",
          "171707.720000",
          "171710.330000",
          "171712.940000",
          "171715.550000",
          "171718.160000",
          "171720.772500",
          "171723.382500",
          "171725.992500",
          "171728.602500",
          "171731.212500",
          "171733.825000",
          "171736.435000",
          "171739.045000",
          "171741.655000",
          "171744.265000",
          "171746.875000",
          "171749.487500",
          "171752.097500",
          "171754.707500",
          "171757.317500",
          "171759.927500",
          "171802.537500",
          "171805.150000",
          "171807.760000",
          "171810.370000",
          "171812.980000",
          "171815.590000",
          "171818.202500",
          "171820.812500",
          "171823.422500",
          "171826.032500",
          "171828.642500",
          "171831.252500",
          "171833.865000",
          "171836.475000",
          "171839.085000",
          "171841.695000",
          "171844.305000",
          "171846.915000",
          "171849.527500",
          "171852.137500",
          "171854.747500",
          "171857.357500",
          "171859.967500",
          "171902.580000",
          "171905.190000",
          "171907.800000",
          "171910.410000",
          "171913.020000",
          "171915.630000",
          "171918.242500",
          "171920.852500",
          "171923.462500",
          "171926.072500",
          "171928.682500",
          "171931.292500",
          "171933.905000",
          "171936.515000",
          "171939.125000",
          "171941.735000",
          "171944.345000",
          "171946.957500",
          "171949.567500",
          "171952.177500",
          "171954.787500",
          "171957.397500",
          "172000.007500",
          "172002.620000",
          "172005.230000",
          "172007.840000",
          "172010.450000",
          "172013.060000",
          "172015.670000",
          "172018.282500",
          "172020.892500",
          "172023.502500",
          "172026.112500",
          "172028.722500",
          "172031.335000",
          "172033.945000",
          "172036.555000",
          "172039.165000",
          "172041.775000",
          "172044.385000",
          "172046.997500",
          "172049.607500",
          "172052.217500",
          "172054.827500",
          "172057.437500",
          "172100.050000",
          "172102.660000",
          "172105.270000",
          "172107.880000",
          "172110.490000",
          "172113.100000",
          "172115.712500",
          "172118.322500",
          "172120.932500",
          "172123.542500",
          "172126.152500",
          "172128.762500",
          "172131.375000",
          "172133.985000",
          "172136.595000",
          "172139.205000",
          "172141.815000",
          "172144.427500",
          "172147.037500"
        ],
        "ContentTime": [
          "171526.125000",
          "171526.609000",
          "171527.609000",
          "171529.609000",
          "171532.109000",
          "171534.609000",
          "171537.109000",
          "171540.109000",
          "171542.609000",
          "171545.109000",
          "171547.609000",
          "171550.109000",
          "171553.109000",
          "171555.609000",
          "171558.109000",
          "171600.609000",
          "171603.109000",
          "171606.109000",
          "171608.609000",
          "171611.109000",
          "171613.609000",
          "171616.109000",
          "171619.109000",
          "171621.609000",
          "171624.109000",
          "171626.609000",
          "171629.109000",
          "171632.109000",
          "171634.609000",
          "171637.109000",
          "171639.609000",
          "171642.109000",
          "171645.109000",
          "171647.609000",
          "171650.109000",
          "171652.609000",
          "171655.109000",
          "171658.109000",
          "171700.609000",
          "171703.109000",
          "171705.609000",
          "171708.109000",
          "171711.109000",
          "171713.609000",
          "171716.109000",
          "171718.609000",
          "171721.109000",
          "171724.109000",
          "171726.609000",
          "171729.109000",
          "171731.609000",
          "171734.109000",
          "171737.109000",
          "171739.609000",
          "171742.109000",
          "171744.609000",
          "171747.109000",
          "171750.109000",
          "171752.609000",
          "171755.109000",
          "171757.609000",
          "171800.109000",
          "171803.109000",
          "171805.609000",
          "171808.109000",
          "171810.609000",
          "171813.109000",
          "171816.109000",
          "171818.609000",
          "171821.109000",
          "171823.609000",
          "171826.109000",
          "171829.109000",
          "171831.609000",
          "171834.109000",
          "171836.609000",
          "171839.109000",
          "171842.109000",
          "171844.609000",
          "171847.109000",
          "171849.609000",
          "171852.109000",
          "171855.109000",
          "171857.609000",
          "171900.109000",
          "171902.609000",
          "171905.109000",
          "171908.109000",
          "171910.609000",
          "171913.109000",
          "171915.609000",
          "171918.109000",
          "171921.109000",
          "171923.609000",
          "171926.109000",
          "171928.609000",
          "171931.109000",
          "171934.109000",
          "171936.609000",
          "171939.109000",
          "171941.609000",
          "171944.109000",
          "171947.109000",
          "171949.609000",
          "171952.109000",
          "171954.609000",
          "171957.109000",
          "172000.109000",
          "172002.609000",
          "172005.109000",
          "172007.609000",
          "172010.109000",
          "172013.109000",
          "172015.609000",
          "172018.109000",
          "172020.609000",
          "172023.109000",
          "172026.109000",
          "172028.609000",
          "172031.109000",
          "172033.609000",
          "172036.109000",
          "172039.109000",
          "172041.609000",
          "172044.109000",
          "172046.609000",
          "172049.609000",
          "172052.109000",
          "172054.609000",
          "172057.109000",
          "172059.609000",
          "172102.109000",
          "172105.109000",
          "172107.609000",
          "172110.109000",
          "172112.609000",
          "172115.109000",
          "172118.109000",
          "172120.609000",
          "172123.109000",
          "172125.609000",
          "172128.109000",
          "172131.109000",
          "172133.609000",
          "172136.109000",
          "172138.609000",
          "172141.109000",
          "172144.109000",
          "172146.609000",
          "172153.859000"
        ],
        "InstanceCreationTime": [
          "171526.125000",
          "171526.609000",
          "171527.609000",
          "171529.609000",
          "171532.109000",
          "171534.609000",
          "171537.109000",
          "171540.109000",
          "171542.609000",
          "171545.109000",
          "171547.609000",
          "171550.109000",
          "171553.109000",
          "171555.609000",
          "171558.109000",
          "171600.609000",
          "171603.109000",
          "171606.109000",
          "171608.609000",
          "171611.109000",
          "171613.609000",
          "171616.109000",
          "171619.109000",
          "171621.609000",
          "171624.109000",
          "171626.609000",
          "171629.109000",
          "171632.109000",
          "171634.609000",
          "171637.109000",
          "171639.609000",
          "171642.109000",
          "171645.109000",
          "171647.609000",
          "171650.109000",
          "171652.609000",
          "171655.109000",
          "171658.109000",
          "171700.609000",
          "171703.109000",
          "171705.609000",
          "171708.109000",
          "171711.109000",
          "171713.609000",
          "171716.109000",
          "171718.609000",
          "171721.109000",
          "171724.109000",
          "171726.609000",
          "171729.109000",
          "171731.609000",
          "171734.109000",
          "171737.109000",
          "171739.609000",
          "171742.109000",
          "171744.609000",
          "171747.109000",
          "171750.109000",
          "171752.609000",
          "171755.109000",
          "171757.609000",
          "171800.109000",
          "171803.109000",
          "171805.609000",
          "171808.109000",
          "171810.609000",
          "171813.109000",
          "171816.109000",
          "171818.609000",
          "171821.109000",
          "171823.609000",
          "171826.109000",
          "171829.109000",
          "171831.609000",
          "171834.109000",
          "171836.609000",
          "171839.109000",
          "171842.109000",
          "171844.609000",
          "171847.109000",
          "171849.609000",
          "171852.109000",
          "171855.109000",
          "171857.609000",
          "171900.109000",
          "171902.609000",
          "171905.109000",
          "171908.109000",
          "171910.609000",
          "171913.109000",
          "171915.609000",
          "171918.109000",
          "171921.109000",
          "171923.609000",
          "171926.109000",
          "171928.609000",
          "171931.109000",
          "171934.109000",
          "171936.609000",
          "171939.109000",
          "171941.609000",
          "171944.109000",
          "171947.109000",
          "171949.609000",
          "171952.109000",
          "171954.609000",
          "171957.109000",
          "172000.109000",
          "172002.609000",
          "172005.109000",
          "172007.609000",
          "172010.109000",
          "172013.109000",
          "172015.609000",
          "172018.109000",
          "172020.609000",
          "172023.109000",
          "172026.109000",
          "172028.609000",
          "172031.109000",
          "172033.609000",
          "172036.109000",
          "172039.109000",
          "172041.609000",
          "172044.109000",
          "172046.609000",
          "172049.609000",
          "172052.109000",
          "172054.609000",
          "172057.109000",
          "172059.609000",
          "172102.109000",
          "172105.109000",
          "172107.609000",
          "172110.109000",
          "172112.609000",
          "172115.109000",
          "172118.109000",
          "172120.609000",
          "172123.109000",
          "172125.609000",
          "172128.109000",
          "172131.109000",
          "172133.609000",
          "172136.109000",
          "172138.609000",
          "172141.109000",
          "172144.109000",
          "172146.609000",
          "172153.859000"
        ],
        "InstanceNumber": [
          1,
          2,
          3,
          4,
          5,
          6,
          7,
          8,
          9,
          10,
          11,
          12,
          13,
          14,
          15,
          16,
          17,
          18,
          19,
          20,
          21,
          22,
          23,
          24,
          25,
          26,
          27,
          28,
          29,
          30,
          31,
          32,
          33,
          34,
          35,
          36,
          37,
          38,
          39,
          40,
          41,
          42,
          43,
          44,
          45,
          46,
          47,
          48,
          49,
          50,
          51,
          52,
          53,
          54,
          55,
          56,
          57,
          58,
          59,
          60,
          61,
          62,
          63,
          64,
          65,
          66,
          67,
          68,
          69,
          70,
          71,
          72,
          73,
          74,
          75,
          76,
          77,
          78,
          79,
          80,
          81,
          82,
          83,
          84,
          85,
          86,
          87,
          88,
          89,
          90,
          91,
          92,
          93,
          94,
          95,
          96,
          97,
          98,
          99,
          100,
          101,
          102,
          103,
          104,
          105,
          106,
          107,
          108,
          109,
          110,
          111,
          112,
          113,
          114,
          115,
          116,
          117,
          118,
          119,
          120,
          121,
          122,
          123,
          124,
          125,
          126,
          127,
          128,
          129,
          130,
          131,
          132,
          133,
          134,
          135,
          136,
          137,
          138,
          139,
          140,
          141,
          142,
          143,
          144,
          145,
          146,
          147,
          148,
          149,
          150
        ],
        "WindowCenter": [
          873.0,
          872.0,
          871.0,
          871.0,
          871.0,
          871.0,
          871.0,
          871.0,
          870.0,
          870.0,
          871.0,
          871.0,
          872.0,
          870.0,
          870.0,
          871.0,
          871.0,
          872.0,
          870.0,
          871.0,
          871.0,
          870.0,
          871.0,
          870.0,
          870.0,
          871.0,
          871.0,
          870.0,
          870.0,
          870.0,
          870.0,
          871.0,
          871.0,
          870.0,
          871.0,
          870.0,
          870.0,
          871.0,
          871.0,
          871.0,
          870.0,
          870.0,
          871.0,
          871.0,
          871.0,
          870.0,
          871.0,
          872.0,
          871.0,
          870.0,
          870.0,
          870.0,
          870.0,
          870.0,
          869.0,
          870.0,
          871.0,
          870.0,
          871.0,
          870.0,
          870.0,
          871.0,
          871.0,
          871.0,
          870.0,
          871.0,
          871.0,
          870.0,
          871.0,
          871.0,
          870.0,
          870.0,
          871.0,
          871.0,
          871.0,
          870.0,
          870.0,
          870.0,
          870.0,
          871.0,
          871.0,
          870.0,
          871.0,
          871.0,
          872.0,
          871.0,
          871.0,
          871.0,
          870.0,
          870.0,
          871.0,
          871.0,
          871.0,
          871.0,
          872.0,
          871.0,
          871.0,
          871.0,
          870.0,
          870.0,
          871.0,
          871.0,
          871.0,
          870.0,
          870.0,
          871.0,
          869.0,
          870.0,
          871.0,
          871.0,
          871.0,
          872.0,
          871.0,
          870.0,
          871.0,
          872.0,
          870.0,
          870.0,
          870.0,
          870.0,
          871.0,
          872.0,
          872.0,
          871.0,
          871.0,
          871.0,
          871.0,
          872.0,
          872.0,
          871.0,
          871.0,
          871.0,
          871.0,
          870.0,
          871.0,
          871.0,
          871.0,
          871.0,
          872.0,
          871.0,
          871.0,
          872.0,
          871.0,
          871.0,
          872.0,
          871.0,
          872.0,
          872.0,
          872.0,
          872.0
        ],
        "WindowWidth": [
          2030.0,
          2026.0,
          2019.0,
          2021.0,
          2021.0,
          2022.0,
          2019.0,
          2020.0,
          2018.0,
          2017.0,
          2020.0,
          2020.0,
          2023.0,
          2018.0,
          2018.0,
          2019.0,
          2020.0,
          2023.0,
          2017.0,
          2020.0,
          2021.0,
          2019.0,
          2019.0,
          2018.0,
          2019.0,
          2022.0,
          2018.0,
          2018.0,
          2018.0,
          2018.0,
          2018.0,
          2020.0,
          2021.0,
          2017.0,
          2019.0,
          2018.0,
          2019.0,
          2019.0,
          2018.0,
          2020.0,
          2019.0,
          2019.0,
          2018.0,
          2019.0,
          2019.0,
          2018.0,
          2023.0,
          2023.0,
          2020.0,
          2018.0,
          2017.0,
          2018.0,
          2018.0,
          2018.0,
          2014.0,
          2017.0,
          2020.0,
          2018.0,
          2021.0,
          2018.0,
          2019.0,
          2021.0,
          2022.0,
          2021.0,
          2018.0,
          2020.0,
          2019.0,
          2016.0,
          2020.0,
          2021.0,
          2019.0,
          2019.0,
          2021.0,
          2019.0,
          2020.0,
          2018.0,
          2017.0,
          2017.0,
          2019.0,
          2020.0,
          2020.0,
          2018.0,
          2020.0,
          2022.0,
          2024.0,
          2020.0,
          2020.0,
          2022.0,
          2019.0,
          2019.0,
          2020.0,
          2021.0,
          2021.0,
          2020.0,
          2025.0,
          2018.0,
          2019.0,
          2019.0,
          2017.0,
          2018.0,
          2019.0,
          2021.0,
          2020.0,
          2018.0,
          2017.0,
          2019.0,
          2013.0,
          2017.0,
          2019.0,
          2018.0,
          2023.0,
          2026.0,
          2019.0,
          2018.0,
          2022.0,
          2024.0,
          2018.0,
          2016.0,
          2017.0,
          2018.0,
          2021.0,
          2026.0,
          2022.0,
          2022.0,
          2022.0,
          2021.0,
          2022.0,
          2025.0,
          2022.0,
          2020.0,
          2023.0,
          2021.0,
          2020.0,
          2018.0,
          2019.0,
          2022.0,
          2023.0,
          2021.0,
          2024.0,
          2022.0,
          2020.0,
          2023.0,
          2020.0,
          2021.0,
          2024.0,
          2021.0,
          2023.0,
          2024.0,
          2022.0,
          2022.0
        ]
      },
      "slices": {}
    }
  },
  "dummy_trs": 2,
  "dvars_nstd": 74.18848476299318,
  "dvars_std": 1.0491894980952376,
  "dvars_vstd": 0.9999866641496599,
  "efc": 0.5530623618869427,
  "fber": 354.9329833984375,
  "fd_mean": 0.03242684049817412,
  "fd_num": 0,
  "fd_perc": 0.0,
  "fwhm_avg": 2.9866135324893044,
  "fwhm_x": 2.8332146326764165,
  "fwhm_y": 2.8267623999504776,
  "fwhm_z": 3.2998635648410195,
  "gcor": 0.000667647,
  "gsr_x": -0.003198563354089856,
  "gsr_y": 0.038324616849422455,
  "provenance": {
    "md5sum": "c21e7768ed7828ae1c4c1c12f8d4bddc",
    "settings": {
      "fd_thres": 0.2,
      "testing": false
    },
    "software": "mriqc",
    "version": "23.0.1",
    "webapi_port": null,
    "webapi_url": "https://mriqc.nimh.nih.gov/api/v1"
  },
  "size_t": 148,
  "size_x": 188,
  "size_y": 188,
  "size_z": 46,
  "snr": 2.0504990440904476,
  "spacing_tr": 2.5999999046325684,
  "spacing_x": 1.0957447290420532,
  "spacing_y": 1.0957447290420532,
  "spacing_z": 1.100000023841858,
  "summary_bg_k": 81.90210329425669,
  "summary_bg_mad": 22.739917143999097,
  "summary_bg_mean": 81.20277404785156,
  "summary_bg_median": 49.00675964355469,
  "summary_bg_n": 1057308.0,
  "summary_bg_p05": 31.087839126586914,
  "summary_bg_p95": 229.76791305541929,
