{
  "aor": 0.0006474,
  "aqi": 0.011769260666666668,
  "bids_meta": {
    "AcquisitionMatrixPE": 188,
    "AcquisitionNumber": 1,
    "AcquisitionTime": "18:27:14.197500",
    "BandwidthPerPixelPhaseEncode": 19.46,
    "BaseResolution": 188,
    "ConversionSoftware": "dcm2niix",
    "ConversionSoftwareVersion": "v1.0.20180606 GCC4.8.5",
    "DelayTime": 1.2,
    "DerivedVendorReportedEchoSpacing": 0.000820013,
    "DeviceSerialNumber": "18930",
    "DwellTime": 1.9e-06,
    "EchoTime": 0.02,
    "EffectiveEchoSpacing": 0.000273338,
    "FlipAngle": 80,
    "ImageComments": "Unaliased_MB2_PE2",
    "ImageOrientationPatientDICOM": [
      0.997424,
      0.0677674,
      -0.0235157,
      -0.0335272,
      0.150615,
      -0.988024
    ],
    "ImageType": [
      "ORIGINAL",
      "PRIMARY",
      "M",
      "MB",
      "ND",
      "MOSAIC"
    ],
    "InPlanePhaseEncodingDirectionDICOM": "COL",
    "InstitutionAddress": "Oxfordlaan_55_Maastricht_753AAF_Limburg_NL_6229_EV",
    "InstitutionName": "Scannexus",
    "InstitutionalDepartmentName": "MRI_7T",
    "MRAcquisitionType": "2D",
    "MagneticFieldStrength": 6.98,
    "Manufacturer": "Siemens",
    "ManufacturersModelName": "Investigational_Device_7T",
    "Modality": "MR",
    "MultibandAccelerationFactor": 2,
    "ParallelReductionFactorInPlane": 3,
    "PartialFourier": 0.75,
    "PatientPosition": "HFS",
    "PercentPhaseFOV": 100,
    "PhaseEncodingDirection": "j",
    "PhaseEncodingSteps": 141,
    "PhaseResolution": 1,
    "PixelBandwidth": 1400,
    "ProcedureStepDescription": "FeDem_Faruk",
    "ProtocolName": "cmrr_mbep2d_bold_AP_run11",
    "PulseSequenceDetails": "%CustomerSeq%_cmrr_mbep2d_bold",
    "ReceiveCoilName": "32Ch_Head_7T",
    "ReconMatrixPE": 188,
    "RepetitionTime": 2.6,
    "SAR": 0.0617183,
    "ScanOptions": "PFP_FS",
    "ScanningSequence": "EP",
    "SequenceName": "epfid2d1_188",
    "SequenceVariant": "SK_SS",
    "SeriesDescription": "cmrr_mbep2d_bold_AP_run11",
    "SeriesNumber": 24,
    "ShimSetting": [
      123,
      -79,
      487,
      312,
      -62,
      576,
      7,
      43
    ],
    "SliceThickness": 1.1,
    "SliceTiming": [
      0,
      0.7325,
      0.06,
      0.795,
      0.1225,
      0.855,
      0.1825,
      0.9175,
      0.245,
      0.9775,
      0.305,
      1.04,
      0.3675,
      1.1,
      0.4275,
      1.16,
      0.49,
      1.2225,
      0.55,
      1.2825,
      0.61,
      1.345,
      0.6725,
      0,
      0.7325,
      0.06,
      0.795,
      0.1225,
      0.855,
      0.1825,
      0.9175,
      0.245,
      0.9775,
      0.305,
      1.04,
      0.3675,
      1.1,
      0.4275,
      1.16,
      0.49,
      1.2225,
      0.55,
      1.2825,
      0.61,
      1.345,
      0.6725
    ],
    "SoftwareVersions": "syngo_MR_B17",
    "SpacingBetweenSlices": 1.1,
    "StationName": "MRC18930",
    "TaskName": "auditory",
    "TotalReadoutTime": 0.0511141,
    "TxRefAmp": 210,
    "dataset": "ds001942",
    "dcmmeta_affine": [
      [
        -1.0929220914840698,
        -0.036737244576215744,
        0.06975541263818741,
        99.55953979492188
      ],
      [
        -0.07425578683614731,
        0.1650356501340866,
        -1.084893822669983,
        39.54338836669922
      ],
      [
        -0.025767162442207336,
        1.0826219320297241,
        0.16774903237819672,
        -115.55513000488281
      ],
      [
        0.0,
        0.0,
        0.0,
        1.0
      ]
    ],
    "dcmmeta_reorient_transform": [
      [
        0.0,
        -1.0,
        0.0,
        187.0
      ],
      [
        1.0,
        0.0,
        0.0,
        0.0
      ],
      [
        0.0,
        0.0,
        1.0,
        0.0
      ],
      [
        0.0,
        0.0,
        0.0,
        1.0
      ]
    ],
    "dcmmeta_shape": [
      188,
      188,
      46,
      150
    ],
    "dcmmeta_slice_dim": 2,
    "dcmmeta_version": 0.6,
    "global": {
      "const": {
        "AcquisitionMatrix": [
          188,
          0,
          0,
          188
        ],
        "AngioFlag": "N",
        "BitsAllocated": 16,
        "BitsStored": 12,
        "Columns": 1316,
        "EchoNumbers": 1,
        "EchoTime": 20.0,
        "EchoTrainLength": 1,
        "FlipAngle": 80.0,
        "HighBit": 11,
        "ImageOrientationPatient": [
          0.99742397753531,
          0.06776741630499,
          -0.0235156612705,
          -0.0335271930401,
          0.15061505590442,
          -0.9880238014652
        ],
        "ImagePositionPatient": [
          -688.37791353932,
          -205.36542862854,
          712.02657917517
        ],
        "ImageType": [
          "ORIGINAL",
          "PRIMARY",
          "M",
          "MB",
          "ND",
          "MOSAIC"
        ],
        "ImagedNucleus": "1H",
        "ImagingFrequency": 297.205622,
        "InPlanePhaseEncodingDirection": "COL",
        "LargestImagePixelValue": 4095,
        "MRAcquisitionType": "2D",
        "MagneticFieldStrength": 6.98,
        "Manufacturer": "SIEMENS",
        "ManufacturerModelName": "Investigational_Device_7T",
        "Modality": "MR",
        "NumberOfAverages": 1.0,
        "NumberOfPhaseEncodingSteps": 141,
        "PercentPhaseFieldOfView": 100.0,
        "PercentSampling": 100.0,
        "PerformedProcedureStepStartTime": "164025.968000",
        "PhotometricInterpretation": "MONOCHROME2",
        "PixelBandwidth": 1400.0,
        "PixelRepresentation": 0,
        "PixelSpacing": [
          1.0957447290421,
          1.0957447290421
        ],
        "ProtocolName": "cmrr_mbep2d_bold_AP_run11",
        "RepetitionTime": 2600.0,
        "Rows": 1316,
        "SAR": 0.06171831783636,
        "SamplesPerPixel": 1,
        "ScanOptions": [
          "PFP",
          "FS"
        ],
        "ScanningSequence": "EP",
        "SequenceName": "epfid2d1_188",
        "SequenceVariant": [
          "SK",
          "SS"
        ],
        "SeriesDescription": "cmrr_mbep2d_bold_AP_run11",
        "SeriesNumber": 24,
        "SeriesTime": "182723.578000",
        "SliceLocation": -50.308925679162,
        "SliceThickness": 1.1000000238419,
        "SmallestImagePixelValue": 0,
        "SoftwareVersions": "syngo MR B17",
        "SpacingBetweenSlices": 1.1000000256964,
        "SpecificCharacterSet": "ISO_IR 100",
        "StudyID": "1",
        "StudyTime": "164025.859000",
        "TransmitCoilName": "32Ch_Head_7T",
        "VariableFlipAngleFlag": "N",
        "WindowCenterWidthExplanation": "Algo1",
        "dBdt": 0.0
      },
      "slices": {}
    },
    "modality": "bold",
    "run_id": 11,
    "session_id": "SES03",
    "subject_id": "S01",
    "task_id": "auditory",
    "time": {
      "samples": {
        "AcquisitionNumber": [
          1,
          2,
          3,
          4,
          5,
          6,
          7,
          8,
          9,
          10,
          11,
          12,
          13,
          14,
          15,
          16,
          17,
          18,
          19,
          20,
          21,
          22,
          23,
          24,
          25,
          26,
          27,
          28,
          29,
          30,
          31,
          32,
          33,
          34,
          35,
          36,
          37,
          38,
          39,
          40,
          41,
          42,
          43,
          44,
          45,
          46,
          47,
          48,
          49,
          50,
          51,
          52,
          53,
          54,
          55,
          56,
          57,
          58,
          59,
          60,
          61,
          62,
          63,
          64,
          65,
          66,
          67,
          68,
          69,
          70,
          71,
          72,
          73,
          74,
          75,
          76,
          77,
          78,
          79,
          80,
          81,
          82,
          83,
          84,
          85,
          86,
          87,
          88,
          89,
          90,
          91,
          92,
          93,
          94,
          95,
          96,
          97,
          98,
          99,
          100,
          101,
          102,
          103,
          104,
          105,
          106,
          107,
          108,
          109,
          110,
          111,
          112,
          113,
          114,
          115,
          116,
          117,
          118,
          119,
          120,
          121,
          122,
          123,
          124,
          125,
          126,
          127,
          128,
          129,
          130,
          131,
          132,
          133,
          134,
          135,
          136,
          137,
          138,
          139,
          140,
          141,
          142,
          143,
          144,
          145,
          146,
          147,
          148,
          149,
          150
        ],
        "AcquisitionTime": [
          "182714.197500",
          "182716.807500",
          "182719.417500",
          "182722.030000",
          "182724.640000",
          "182727.250000",
          "182729.860000",
          "182732.470000",
          "182735.080000",
          "182737.692500",
          "182740.302500",
          "182742.912500",
          "182745.522500",
          "182748.132500",
          "182750.742500",
          "182753.355000",
          "182755.965000",
          "182758.575000",
          "182801.185000",
          "182803.795000",
          "182806.407500",
          "182809.017500",
          "182811.627500",
          "182814.237500",
          "182816.847500",
          "182819.457500",
          "182822.070000",
          "182824.680000",
          "182827.290000",
          "182829.900000",
          "182832.510000",
          "182835.120000",
          "182837.732500",
          "182840.342500",
          "182842.952500",
          "182845.562500",
          "182848.172500",
          "182850.785000",
          "182853.395000",
          "182856.005000",
          "182858.615000",
          "182901.225000",
          "182903.835000",
          "182906.447500",
          "182909.057500",
          "182911.667500",
          "182914.277500",
          "182916.887500",
          "182919.497500",
          "182922.110000",
          "182924.720000",
          "182927.330000",
          "182929.940000",
          "182932.550000",
          "182935.162500",
          "182937.772500",
          "182940.382500",
          "182942.992500",
          "182945.602500",
          "182948.212500",
          "182950.825000",
          "182953.435000",
          "182956.045000",
          "182958.655000",
          "183001.265000",
          "183003.875000",
          "183006.487500",
          "183009.097500",
          "183011.707500",
          "183014.317500",
          "183016.927500",
          "183019.540000",
          "183022.150000",
          "183024.760000",
          "183027.370000",
          "183029.980000",
          "183032.590000",
          "183035.202500",
          "183037.812500",
          "183040.422500",
          "183043.032500",
          "183045.642500",
          "183048.252500",
          "183050.865000",
          "183053.475000",
          "183056.085000",
          "183058.695000",
          "183101.305000",
          "183103.917500",
          "183106.527500",
          "183109.137500",
          "183111.747500",
          "183114.357500",
          "183116.967500",
          "183119.580000",
          "183122.190000",
          "183124.800000",
          "183127.410000",
          "183130.020000",
          "183132.630000",
          "183135.242500",
          "183137.852500",
          "183140.462500",
          "183143.072500",
          "183145.682500",
          "183148.295000",
          "183150.905000",
          "183153.515000",
          "183156.125000",
          "183158.735000",
          "183201.345000",
          "183203.957500",
          "183206.567500",
          "183209.177500",
          "183211.787500",
          "183214.397500",
          "183217.007500",
          "183219.620000",
          "183222.230000",
          "183224.840000",
          "183227.450000",
          "183230.060000",
          "183232.672500",
          "183235.282500",
          "183237.892500",
          "183240.502500",
          "183243.112500",
          "183245.722500",
          "183248.335000",
          "183250.945000",
          "183253.555000",
          "183256.165000",
          "183258.775000",
          "183301.385000",
          "183303.997500",
          "183306.607500",
          "183309.217500",
          "183311.827500",
          "183314.437500",
          "183317.050000",
          "183319.660000",
          "183322.270000",
          "183324.880000",
          "183327.490000",
          "183330.100000",
          "183332.712500",
          "183335.322500",
          "183337.932500",
          "183340.542500",
          "183343.152500"
        ],
        "ContentTime": [
          "182723.578000",
          "182723.593000",
          "182724.078000",
          "182726.578000",
          "182729.078000",
          "182732.078000",
          "182734.578000",
          "182737.078000",
          "182739.578000",
          "182742.078000",
          "182745.078000",
          "182747.578000",
          "182750.078000",
          "182752.578000",
          "182755.078000",
          "182758.078000",
          "182800.578000",
          "182803.078000",
          "182805.578000",
          "182808.078000",
          "182811.078000",
          "182813.578000",
          "182816.078000",
          "182818.578000",
          "182821.078000",
          "182824.078000",
          "182826.578000",
          "182829.078000",
          "182831.578000",
          "182834.078000",
          "182837.078000",
          "182839.578000",
          "182842.078000",
          "182844.578000",
          "182847.078000",
          "182850.078000",
          "182852.578000",
          "182855.078000",
          "182857.578000",
          "182900.078000",
          "182903.078000",
          "182905.578000",
          "182908.078000",
          "182910.578000",
          "182913.078000",
          "182916.078000",
          "182918.578000",
          "182921.078000",
          "182923.578000",
          "182926.078000",
          "182929.078000",
          "182931.578000",
          "182934.078000",
          "182936.578000",
          "182939.078000",
          "182942.078000",
          "182944.578000",
          "182947.078000",
          "182949.578000",
          "182952.078000",
          "182955.078000",
          "182957.578000",
          "183000.078000",
          "183002.578000",
          "183005.078000",
          "183008.078000",
          "183010.578000",
          "183013.078000",
          "183015.578000",
          "183018.078000",
          "183021.078000",
          "183023.578000",
          "183026.078000",
          "183028.578000",
          "183031.078000",
          "183034.078000",
          "183036.578000",
          "183039.078000",
          "183041.578000",
          "183044.078000",
          "183047.078000",
          "183049.578000",
          "183052.078000",
          "183054.578000",
          "183057.078000",
          "183100.078000",
          "183102.578000",
          "183105.078000",
          "183107.578000",
          "183110.078000",
          "183113.078000",
          "183115.578000",
          "183118.078000",
          "183120.578000",
          "183123.078000",
          "183126.078000",
          "183128.578000",
          "183131.078000",
          "183133.578000",
          "183136.078000",
          "183139.078000",
          "183141.578000",
          "183144.078000",
          "183146.578000",
          "183149.078000",
          "183152.078000",
          "183154.578000",
          "183157.078000",
          "183159.578000",
          "183202.078000",
          "183205.078000",
          "183207.578000",
          "183210.078000",
          "183212.578000",
          "183215.078000",
          "183218.078000",
          "183220.578000",
          "183223.078000",
          "183225.578000",
          "183228.078000",
          "183231.078000",
          "183233.578000",
          "183236.078000",
          "183238.578000",
          "183241.078000",
          "183244.078000",
          "183246.578000",
          "183249.078000",
          "183251.578000",
          "183254.078000",
          "183257.078000",
          "183259.578000",
          "183302.078000",
          "183304.578000",
          "183307.078000",
          "183310.078000",
          "183312.578000",
          "183315.078000",
          "183317.578000",
          "183320.078000",
          "183323.078000",
          "183325.578000",
          "183328.078000",
          "183330.578000",
          "183333.078000",
          "183336.078000",
          "183338.578000",
          "183341.078000",
          "183343.578000",
          "183351.000000"
        ],
        "InstanceCreationTime": [
          "182723.578000",
          "182723.593000",
          "182724.078000",
          "182726.578000",
          "182729.078000",
          "182732.078000",
          "182734.578000",
          "182737.078000",
          "182739.578000",
          "182742.078000",
          "182745.078000",
          "182747.578000",
          "182750.078000",
          "182752.578000",
          "182755.078000",
          "182758.078000",
          "182800.578000",
          "182803.078000",
          "182805.578000",
          "182808.078000",
          "182811.078000",
          "182813.578000",
          "182816.078000",
          "182818.578000",
          "182821.078000",
          "182824.078000",
          "182826.578000",
          "182829.078000",
          "182831.578000",
          "182834.078000",
          "182837.078000",
          "182839.578000",
          "182842.078000",
          "182844.578000",
          "182847.078000",
          "182850.078000",
          "182852.578000",
          "182855.078000",
          "182857.578000",
          "182900.078000",
          "182903.078000",
          "182905.578000",
          "182908.078000",
          "182910.578000",
          "182913.078000",
          "182916.078000",
          "182918.578000",
          "182921.078000",
          "182923.578000",
          "182926.078000",
          "182929.078000",
          "182931.578000",
          "182934.078000",
          "182936.578000",
          "182939.078000",
          "182942.078000",
          "182944.578000",
          "182947.078000",
          "182949.578000",
          "182952.078000",
          "182955.078000",
          "182957.578000",
          "183000.078000",
          "183002.578000",
          "183005.078000",
          "183008.078000",
          "183010.578000",
          "183013.078000",
          "183015.578000",
          "183018.078000",
          "183021.078000",
          "183023.578000",
          "183026.078000",
          "183028.578000",
          "183031.078000",
          "183034.078000",
          "183036.578000",
          "183039.078000",
          "183041.578000",
          "183044.078000",
          "183047.078000",
          "183049.578000",
          "183052.078000",
          "183054.578000",
          "183057.078000",
          "183100.078000",
          "183102.578000",
          "183105.078000",
          "183107.578000",
          "183110.078000",
          "183113.078000",
          "183115.578000",
          "183118.078000",
          "183120.578000",
          "183123.078000",
          "183126.078000",
          "183128.578000",
          "183131.078000",
          "183133.578000",
          "183136.078000",
          "183139.078000",
          "183141.578000",
          "183144.078000",
          "183146.578000",
          "183149.078000",
          "183152.078000",
          "183154.578000",
          "183157.078000",
          "183159.578000",
          "183202.078000",
          "183205.078000",
          "183207.578000",
          "183210.078000",
          "183212.578000",
          "183215.078000",
          "183218.078000",
          "183220.578000",
          "183223.078000",
          "183225.578000",
          "183228.078000",
          "183231.078000",
          "183233.578000",
          "183236.078000",
          "183238.578000",
          "183241.078000",
          "183244.078000",
          "183246.578000",
          "183249.078000",
          "183251.578000",
          "183254.078000",
          "183257.078000",
          "183259.578000",
          "183302.078000",
          "183304.578000",
          "183307.078000",
          "183310.078000",
          "183312.578000",
          "183315.078000",
          "183317.578000",
          "183320.078000",
          "183323.078000",
          "183325.578000",
          "183328.078000",
          "183330.578000",
          "183333.078000",
          "183336.078000",
          "183338.578000",
          "183341.078000",
          "183343.578000",
          "183351.000000"
        ],
        "InstanceNumber": [
          1,
          2,
          3,
          4,
          5,
          6,
          7,
          8,
          9,
          10,
          11,
          12,
          13,
          14,
          15,
          16,
          17,
          18,
          19,
          20,
          21,
          22,
          23,
          24,
          25,
          26,
          27,
          28,
          29,
          30,
          31,
          32,
          33,
          34,
          35,
          36,
          37,
          38,
          39,
          40,
          41,
          42,
          43,
          44,
          45,
          46,
          47,
          48,
          49,
          50,
          51,
          52,
          53,
          54,
          55,
          56,
          57,
          58,
          59,
          60,
          61,
          62,
          63,
          64,
          65,
          66,
          67,
          68,
          69,
          70,
          71,
          72,
          73,
          74,
          75,
          76,
          77,
          78,
          79,
          80,
          81,
          82,
          83,
          84,
          85,
          86,
          87,
          88,
          89,
          90,
          91,
          92,
          93,
          94,
          95,
          96,
          97,
          98,
          99,
          100,
          101,
          102,
          103,
          104,
          105,
          106,
          107,
          108,
          109,
          110,
          111,
          112,
          113,
          114,
          115,
          116,
          117,
          118,
          119,
          120,
          121,
          122,
          123,
          124,
          125,
          126,
          127,
          128,
          129,
          130,
          131,
          132,
          133,
          134,
          135,
          136,
          137,
          138,
          139,
          140,
          141,
          142,
          143,
          144,
          145,
          146,
          147,
          148,
          149,
          150
        ],
        "WindowCenter": [
          877.0,
          876.0,
          875.0,
          876.0,
          876.0,
          876.0,
          876.0,
          876.0,
          877.0,
          876.0,
          875.0,
          876.0,
          876.0,
          876.0,
          876.0,
          876.0,
          876.0,
          876.0,
          876.0,
          876.0,
          875.0,
          876.0,
          876.0,
          876.0,
          875.0,
          876.0,
          876.0,
          876.0,
          876.0,
          875.0,
          875.0,
          876.0,
          876.0,
          875.0,
          877.0,
          877.0,
          875.0,
          876.0,
          876.0,
          875.0,
          877.0,
          876.0,
          875.0,
          875.0,
          875.0,
          875.0,
          876.0,
          876.0,
          876.0,
          876.0,
          876.0,
          875.0,
          876.0,
          876.0,
          875.0,
          876.0,
          876.0,
          875.0,
          875.0,
          876.0,
          876.0,
          875.0,
          876.0,
          877.0,
          878.0,
          876.0,
          875.0,
          876.0,
          876.0,
          876.0,
          876.0,
          876.0,
          876.0,
          877.0,
          877.0,
          876.0,
          876.0,
          876.0,
          876.0,
          876.0,
          876.0,
          875.0,
          876.0,
          876.0,
          876.0,
          876.0,
          876.0,
          876.0,
          876.0,
          876.0,
          876.0,
          875.0,
          876.0,
          875.0,
          876.0,
          875.0,
          876.0,
          876.0,
          876.0,
          875.0,
          876.0,
          876.0,
          876.0,
          876.0,
          876.0,
          876.0,
          875.0,
          876.0,
          877.0,
          876.0,
          876.0,
          876.0,
          876.0,
          875.0,
          876.0,
          876.0,
          876.0,
          877.0,
          876.0,
          876.0,
          876.0,
          876.0,
          876.0,
          876.0,
          876.0,
          876.0,
          876.0,
          876.0,
          876.0,
          877.0,
          876.0,
          878.0,
          878.0,
          877.0,
          877.0,
          876.0,
          877.0,
          876.0,
          876.0,
          876.0,
          876.0,
          876.0,
          877.0,
          875.0,
          876.0,
          875.0,
          876.0,
          876.0,
          876.0,
          876.0
        ],
        "WindowWidth": [
          2038.0,
          2032.0,
          2031.0,
          2033.0,
          2032.0,
          2035.0,
          2032.0,
          2033.0,
          2036.0,
          2034.0,
          2031.0,
          2032.0,
          2034.0,
          2033.0,
          2033.0,
          2033.0,
          2032.0,
          2031.0,
          2035.0,
          2034.0,
          2030.0,
          2032.0,
          2033.0,
          2031.0,
          2031.0,
          2035.0,
          2033.0,
          2032.0,
          2035.0,
          2032.0,
          2029.0,
          2033.0,
          2032.0,
          2031.0,
          2037.0,
          2035.0,
          2031.0,
          2033.0,
          2033.0,
          2030.0,
          2039.0,
          2034.0,
          2028.0,
          2028.0,
          2031.0,
          2029.0,
          2032.0,
          2033.0,
          2032.0,
          2035.0,
          2034.0,
          2030.0,
          2032.0,
          2032.0,
          2031.0,
          2036.0,
          2034.0,
          2029.0,
          2030.0,
          2032.0,
          2032.0,
          2031.0,
          2032.0,
          2036.0,
          2040.0,
          2032.0,
          2032.0,
          2032.0,
          2034.0,
          2035.0,
          2033.0,
          2033.0,
          2034.0,
          2036.0,
          2037.0,
          2034.0,
          2035.0,
          2034.0,
          2035.0,
          2033.0,
          2032.0,
          2030.0,
          2034.0,
          2034.0,
          2035.0,
          2034.0,
          2031.0,
          2033.0,
          2032.0,
          2033.0,
          2032.0,
          2029.0,
          2033.0,
          2030.0,
          2033.0,
          2031.0,
          2033.0,
          2033.0,
          2031.0,
          2031.0,
          2034.0,
          2031.0,
          2031.0,
          2031.0,
          2032.0,
          2033.0,
          2031.0,
          2033.0,
          2035.0,
          2034.0,
          2034.0,
          2034.0,
          2032.0,
          2027.0,
          2031.0,
          2033.0,
          2034.0,
          2036.0,
          2034.0,
          2033.0,
          2033.0,
          2032.0,
          2032.0,
          2031.0,
          2031.0,
          2032.0,
          2032.0,
          2032.0,
          2033.0,
          2036.0,
          2032.0,
          2039.0,
          2037.0,
          2035.0,
          2035.0,
          2032.0,
          2034.0,
          2030.0,
          2031.0,
          2033.0,
          2032.0,
          2032.0,
          2034.0,
          2029.0,
          2030.0,
          2030.0,
          2033.0,
          2033.0,
          2031.0,
          2032.0
        ]
      },
      "slices": {}
    }
  },
  "dummy_trs": 0,
  "dvars_nstd": 73.65813123463089,
  "dvars_std": 1.0608667455704701,
  "dvars_vstd": 1.0185159965771808,
  "efc": 0.5544425741845076,
  "fber": 339.09613037109375,
  "fd_mean": 0.03955344688299448,
  "fd_num": 2,
  "fd_perc": 1.3333333333333333,
  "fwhm_avg": 2.994761216895498,
  "fwhm_x": 2.834939486969489,
  "fwhm_y": 2.8291169629537194,
  "fwhm_z": 3.320227200763286,
  "gcor": 0.000769241,
  "gsr_x": -0.0007256523240357637,
  "gsr_y": 0.03666667267680168,
  "provenance": {
    "md5sum": "5795e877845b303c2b2a1abf6c100798",
    "settings": {
      "fd_thres": 0.2,
      "testing": false
    },
    "software": "mriqc",
    "version": "23.0.1",
    "webapi_port": null,
    "webapi_url": "https://mriqc.nimh.nih.gov/api/v1"
  },
  "size_t": 150,
  "size_x": 188,
  "size_y": 188,
  "size_z": 46,
  "snr": 2.019664097644868,
  "spacing_tr": 2.5999999046325684,
  "spacing_x": 1.0957447290420532,
  "spacing_y": 1.0957447290420532,
  "spacing_z": 1.100000023841858,
  "summary_bg_k": 78.44692631255204,
  "summary_bg_mad": 23.780940942192725,
  "summary_bg_mean": 84.72561645507812,
  "summary_bg_median": 50.46000289916992,
  "summary_bg_n": 1057079.0,
  "summary_bg_p05": 31.540000915527344,
  "summary_bg_p95": 246.5933380126953,
