{
  "aor": 0.0006477852348993288,
  "aqi": 0.012276308053691275,
  "bids_meta": {
    "AcquisitionMatrixPE": 188,
    "AcquisitionNumber": 1,
    "AcquisitionTime": "17:30:47.072500",
    "BandwidthPerPixelPhaseEncode": 19.46,
    "BaseResolution": 188,
    "CogAtlasID": "TODO",
    "ConversionSoftware": "dcm2niix",
    "ConversionSoftwareVersion": "v1.0.20180606 GCC4.8.5",
    "DelayTime": 1.2,
    "DerivedVendorReportedEchoSpacing": 0.000820013,
    "DeviceSerialNumber": "18930",
    "DwellTime": 1.9e-06,
    "EchoTime": 0.02,
    "EffectiveEchoSpacing": 0.000273338,
    "FlipAngle": 80,
    "ImageComments": "Unaliased_MB2_PE2",
    "ImageOrientationPatientDICOM": [
      0.997424,
      0.0677674,
      -0.0235157,
      -0.0335272,
      0.150615,
      -0.988024
    ],
    "ImageType": [
      "ORIGINAL",
      "PRIMARY",
      "M",
      "MB",
      "ND",
      "MOSAIC"
    ],
    "InPlanePhaseEncodingDirectionDICOM": "COL",
    "InstitutionAddress": "Oxfordlaan_55_Maastricht_753AAF_Limburg_NL_6229_EV",
    "InstitutionName": "Scannexus",
    "InstitutionalDepartmentName": "MRI_7T",
    "MRAcquisitionType": "2D",
    "MagneticFieldStrength": 6.98,
    "Manufacturer": "Siemens",
    "ManufacturersModelName": "Investigational_Device_7T",
    "Modality": "MR",
    "MultibandAccelerationFactor": 2,
    "ParallelReductionFactorInPlane": 3,
    "PartialFourier": 0.75,
    "PatientPosition": "HFS",
    "PercentPhaseFOV": 100,
    "PhaseEncodingDirection": "j",
    "PhaseEncodingSteps": 141,
    "PhaseResolution": 1,
    "PixelBandwidth": 1400,
    "ProcedureStepDescription": "FeDem_Faruk",
    "ProtocolName": "cmrr_mbep2d_bold_AP_run4",
    "PulseSequenceDetails": "%CustomerSeq%_cmrr_mbep2d_bold",
    "ReceiveCoilName": "32Ch_Head_7T",
    "ReconMatrixPE": 188,
    "RepetitionTime": 2.6,
    "SAR": 0.0619652,
    "ScanOptions": "PFP_FS",
    "ScanningSequence": "EP",
    "SequenceName": "epfid2d1_188",
    "SequenceVariant": "SK_SS",
    "SeriesDescription": "cmrr_mbep2d_bold_AP_run4",
    "SeriesNumber": 15,
    "ShimSetting": [
      123,
      -79,
      487,
      312,
      -62,
      576,
      7,
      43
    ],
    "SliceThickness": 1.1,
    "SliceTiming": [
      0,
      0.7325,
      0.06,
      0.795,
      0.1225,
      0.855,
      0.1825,
      0.9175,
      0.245,
      0.9775,
      0.305,
      1.04,
      0.3675,
      1.1,
      0.4275,
      1.16,
      0.49,
      1.2225,
      0.55,
      1.2825,
      0.61,
      1.345,
      0.6725,
      0,
      0.7325,
      0.06,
      0.795,
      0.1225,
      0.855,
      0.1825,
      0.9175,
      0.245,
      0.9775,
      0.305,
      1.04,
      0.3675,
      1.1,
      0.4275,
      1.16,
      0.49,
      1.2225,
      0.55,
      1.2825,
      0.61,
      1.345,
      0.6725
    ],
    "SoftwareVersions": "syngo_MR_B17",
    "SpacingBetweenSlices": 1.1,
    "StationName": "MRC18930",
    "TaskName": "auditory",
    "TotalReadoutTime": 0.0511141,
    "TxRefAmp": 210,
    "dataset": "ds001942",
    "dcmmeta_affine": [
      [
        -1.0929220914840698,
        -0.036737244576215744,
        0.06975541263818741,
        99.55953979492188
      ],
      [
        -0.07425578683614731,
        0.1650356501340866,
        -1.084893822669983,
        39.54338836669922
      ],
      [
        -0.025767162442207336,
        1.0826219320297241,
        0.16774903237819672,
        -115.55513000488281
      ],
      [
        0.0,
        0.0,
        0.0,
        1.0
      ]
    ],
    "dcmmeta_reorient_transform": [
      [
        0.0,
        -1.0,
        0.0,
        187.0
      ],
      [
        1.0,
        0.0,
        0.0,
        0.0
      ],
      [
        0.0,
        0.0,
        1.0,
        0.0
      ],
      [
        0.0,
        0.0,
        0.0,
        1.0
      ]
    ],
    "dcmmeta_shape": [
      188,
      188,
      46,
      150
    ],
    "dcmmeta_slice_dim": 2,
    "dcmmeta_version": 0.6,
    "global": {
      "const": {
        "AcquisitionMatrix": [
          188,
          0,
          0,
          188
        ],
        "AngioFlag": "N",
        "BitsAllocated": 16,
        "BitsStored": 12,
        "Columns": 1316,
        "EchoNumbers": 1,
        "EchoTime": 20.0,
        "EchoTrainLength": 1,
        "FlipAngle": 80.0,
        "HighBit": 11,
        "ImageOrientationPatient": [
          0.99742397753531,
          0.06776741630499,
          -0.0235156612705,
          -0.0335271930401,
          0.15061505590442,
          -0.9880238014652
        ],
        "ImagePositionPatient": [
          -688.37791353932,
          -205.36542862854,
          712.02657917517
        ],
        "ImageType": [
          "ORIGINAL",
          "PRIMARY",
          "M",
          "MB",
          "ND",
          "MOSAIC"
        ],
        "ImagedNucleus": "1H",
        "ImagingFrequency": 297.205617,
        "InPlanePhaseEncodingDirection": "COL",
        "LargestImagePixelValue": 4095,
        "MRAcquisitionType": "2D",
        "MagneticFieldStrength": 6.98,
        "Manufacturer": "SIEMENS",
        "ManufacturerModelName": "Investigational_Device_7T",
        "Modality": "MR",
        "NumberOfAverages": 1.0,
        "NumberOfPhaseEncodingSteps": 141,
        "PercentPhaseFieldOfView": 100.0,
        "PercentSampling": 100.0,
        "PerformedProcedureStepStartTime": "164025.968000",
        "PhotometricInterpretation": "MONOCHROME2",
        "PixelBandwidth": 1400.0,
        "PixelRepresentation": 0,
        "PixelSpacing": [
          1.0957447290421,
          1.0957447290421
        ],
        "ProtocolName": "cmrr_mbep2d_bold_AP_run4",
        "RepetitionTime": 2600.0,
        "Rows": 1316,
        "SAR": 0.06196521993982,
        "SamplesPerPixel": 1,
        "ScanOptions": [
          "PFP",
          "FS"
        ],
        "ScanningSequence": "EP",
        "SequenceName": "epfid2d1_188",
        "SequenceVariant": [
          "SK",
          "SS"
        ],
        "SeriesDescription": "cmrr_mbep2d_bold_AP_run4",
        "SeriesNumber": 15,
        "SeriesTime": "173056.343000",
        "SliceLocation": -50.308925679162,
        "SliceThickness": 1.1000000238419,
        "SmallestImagePixelValue": 0,
        "SoftwareVersions": "syngo MR B17",
        "SpacingBetweenSlices": 1.1000000256964,
        "SpecificCharacterSet": "ISO_IR 100",
        "StudyID": "1",
        "StudyTime": "164025.859000",
        "TransmitCoilName": "32Ch_Head_7T",
        "VariableFlipAngleFlag": "N",
        "WindowCenterWidthExplanation": "Algo1",
        "dBdt": 0.0
      },
      "slices": {}
    },
    "modality": "bold",
    "run_id": 4,
    "session_id": "SES03",
    "subject_id": "S01",
    "task_id": "auditory",
    "time": {
      "samples": {
        "AcquisitionNumber": [
          1,
          2,
          3,
          4,
          5,
          6,
          7,
          8,
          9,
          10,
          11,
          12,
          13,
          14,
          15,
          16,
          17,
          18,
          19,
          20,
          21,
          22,
          23,
          24,
          25,
          26,
          27,
          28,
          29,
          30,
          31,
          32,
          33,
          34,
          35,
          36,
          37,
          38,
          39,
          40,
          41,
          42,
          43,
          44,
          45,
          46,
          47,
          48,
          49,
          50,
          51,
          52,
          53,
          54,
          55,
          56,
          57,
          58,
          59,
          60,
          61,
          62,
          63,
          64,
          65,
          66,
          67,
          68,
          69,
          70,
          71,
          72,
          73,
          74,
          75,
          76,
          77,
          78,
          79,
          80,
          81,
          82,
          83,
          84,
          85,
          86,
          87,
          88,
          89,
          90,
          91,
          92,
          93,
          94,
          95,
          96,
          97,
          98,
          99,
          100,
          101,
          102,
          103,
          104,
          105,
          106,
          107,
          108,
          109,
          110,
          111,
          112,
          113,
          114,
          115,
          116,
          117,
          118,
          119,
          120,
          121,
          122,
          123,
          124,
          125,
          126,
          127,
          128,
          129,
          130,
          131,
          132,
          133,
          134,
          135,
          136,
          137,
          138,
          139,
          140,
          141,
          142,
          143,
          144,
          145,
          146,
          147,
          148,
          149,
          150
        ],
        "AcquisitionTime": [
          "173047.072500",
          "173049.682500",
          "173052.292500",
          "173054.905000",
          "173057.515000",
          "173100.125000",
          "173102.735000",
          "173105.345000",
          "173107.955000",
          "173110.567500",
          "173113.177500",
          "173115.787500",
          "173118.397500",
          "173121.007500",
          "173123.620000",
          "173126.230000",
          "173128.840000",
          "173131.450000",
          "173134.060000",
          "173136.670000",
          "173139.282500",
          "173141.892500",
          "173144.502500",
          "173147.112500",
          "173149.722500",
          "173152.332500",
          "173154.945000",
          "173157.555000",
          "173200.165000",
          "173202.775000",
          "173205.385000",
          "173207.997500",
          "173210.607500",
          "173213.217500",
          "173215.827500",
          "173218.437500",
          "173221.047500",
          "173223.660000",
          "173226.270000",
          "173228.880000",
          "173231.490000",
          "173234.100000",
          "173236.710000",
          "173239.322500",
          "173241.932500",
          "173244.542500",
          "173247.152500",
          "173249.762500",
          "173252.375000",
          "173254.985000",
          "173257.595000",
          "173300.205000",
          "173302.815000",
          "173305.425000",
          "173308.037500",
          "173310.647500",
          "173313.257500",
          "173315.867500",
          "173318.477500",
          "173321.087500",
          "173323.700000",
          "173326.310000",
          "173328.920000",
          "173331.530000",
          "173334.140000",
          "173336.752500",
          "173339.362500",
          "173341.972500",
          "173344.582500",
          "173347.192500",
          "173349.802500",
          "173352.415000",
          "173355.025000",
          "173357.635000",
          "173400.245000",
          "173402.855000",
          "173405.465000",
          "173408.077500",
          "173410.687500",
          "173413.297500",
          "173415.907500",
          "173418.517500",
          "173421.130000",
          "173423.740000",
          "173426.350000",
          "173428.960000",
          "173431.570000",
          "173434.180000",
          "173436.792500",
          "173439.402500",
          "173442.012500",
          "173444.622500",
          "173447.232500",
          "173449.842500",
          "173452.455000",
          "173455.065000",
          "173457.675000",
          "173500.285000",
          "173502.895000",
          "173505.507500",
          "173508.117500",
          "173510.727500",
          "173513.337500",
          "173515.947500",
          "173518.557500",
          "173521.170000",
          "173523.780000",
          "173526.390000",
          "173529.000000",
          "173531.610000",
          "173534.220000",
          "173536.832500",
          "173539.442500",
          "173542.052500",
          "173544.662500",
          "173547.272500",
          "173549.885000",
          "173552.495000",
          "173555.105000",
          "173557.715000",
          "173600.325000",
          "173602.935000",
          "173605.547500",
          "173608.157500",
          "173610.767500",
          "173613.377500",
          "173615.987500",
          "173618.597500",
          "173621.210000",
          "173623.820000",
          "173626.430000",
          "173629.040000",
          "173631.650000",
          "173634.262500",
          "173636.872500",
          "173639.482500",
          "173642.092500",
          "173644.702500",
          "173647.312500",
          "173649.925000",
          "173652.535000",
          "173655.145000",
          "173657.755000",
          "173700.365000",
          "173702.975000",
          "173705.587500",
          "173708.197500",
          "173710.807500",
          "173713.417500",
          "173716.027500"
        ],
        "ContentTime": [
          "173056.343000",
          "173056.343000",
          "173057.343000",
          "173059.343000",
          "173101.843000",
          "173104.343000",
          "173106.843000",
          "173109.843000",
          "173112.343000",
          "173114.843000",
          "173117.343000",
          "173119.843000",
          "173122.843000",
          "173125.343000",
          "173127.843000",
          "173130.343000",
          "173132.843000",
          "173135.843000",
          "173138.343000",
          "173140.843000",
          "173143.343000",
          "173145.843000",
          "173148.843000",
          "173151.343000",
          "173153.843000",
          "173156.343000",
          "173158.843000",
          "173201.843000",
          "173204.343000",
          "173206.843000",
          "173209.343000",
          "173211.843000",
          "173214.843000",
          "173217.343000",
          "173219.843000",
          "173222.343000",
          "173224.843000",
          "173227.843000",
          "173230.343000",
          "173232.843000",
          "173235.343000",
          "173237.843000",
          "173240.843000",
          "173243.343000",
          "173245.843000",
          "173248.343000",
          "173250.843000",
          "173253.843000",
          "173256.343000",
          "173258.843000",
          "173301.343000",
          "173303.843000",
          "173306.843000",
          "173309.343000",
          "173311.843000",
          "173314.343000",
          "173316.843000",
          "173319.843000",
          "173322.343000",
          "173324.843000",
          "173327.343000",
          "173329.843000",
          "173332.843000",
          "173335.343000",
          "173337.843000",
          "173340.343000",
          "173342.843000",
          "173345.843000",
          "173348.343000",
          "173350.843000",
          "173353.343000",
          "173355.843000",
          "173358.843000",
          "173401.343000",
          "173403.843000",
          "173406.343000",
          "173408.843000",
          "173411.843000",
          "173414.343000",
          "173416.843000",
          "173419.343000",
          "173421.843000",
          "173424.843000",
          "173427.343000",
          "173429.843000",
          "173432.343000",
          "173434.843000",
          "173437.843000",
          "173440.343000",
          "173442.843000",
          "173445.343000",
          "173447.843000",
          "173450.843000",
          "173453.343000",
          "173455.843000",
          "173458.343000",
          "173500.843000",
          "173503.843000",
          "173506.343000",
          "173508.843000",
          "173511.343000",
          "173513.843000",
          "173516.843000",
          "173519.343000",
          "173521.843000",
          "173524.343000",
          "173526.843000",
          "173529.843000",
          "173532.343000",
          "173534.843000",
          "173537.343000",
          "173539.843000",
          "173542.843000",
          "173545.343000",
          "173547.843000",
          "173550.343000",
          "173552.843000",
          "173555.843000",
          "173558.343000",
          "173600.843000",
          "173603.343000",
          "173605.843000",
          "173608.843000",
          "173611.343000",
          "173613.843000",
          "173616.343000",
          "173618.843000",
          "173621.843000",
          "173624.343000",
          "173626.843000",
          "173629.343000",
          "173631.843000",
          "173634.843000",
          "173637.343000",
          "173639.843000",
          "173642.343000",
          "173644.843000",
          "173647.843000",
          "173650.343000",
          "173652.843000",
          "173655.343000",
          "173657.843000",
          "173700.843000",
          "173703.343000",
          "173705.843000",
          "173708.343000",
          "173710.843000",
          "173713.843000",
          "173716.343000",
          "173723.578000"
        ],
        "InstanceCreationTime": [
          "173056.343000",
          "173056.343000",
          "173057.343000",
          "173059.343000",
          "173101.843000",
          "173104.343000",
          "173106.843000",
          "173109.843000",
          "173112.343000",
          "173114.843000",
          "173117.343000",
          "173119.843000",
          "173122.843000",
          "173125.343000",
          "173127.843000",
          "173130.343000",
          "173132.843000",
          "173135.843000",
          "173138.343000",
          "173140.843000",
          "173143.343000",
          "173145.843000",
          "173148.843000",
          "173151.343000",
          "173153.843000",
          "173156.343000",
          "173158.843000",
          "173201.843000",
          "173204.343000",
          "173206.843000",
          "173209.343000",
          "173211.843000",
          "173214.843000",
          "173217.343000",
          "173219.843000",
          "173222.343000",
          "173224.843000",
          "173227.843000",
          "173230.343000",
          "173232.843000",
          "173235.343000",
          "173237.843000",
          "173240.843000",
          "173243.343000",
          "173245.843000",
          "173248.343000",
          "173250.843000",
          "173253.843000",
          "173256.343000",
          "173258.843000",
          "173301.343000",
          "173303.843000",
          "173306.843000",
          "173309.343000",
          "173311.843000",
          "173314.343000",
          "173316.843000",
          "173319.843000",
          "173322.343000",
          "173324.843000",
          "173327.343000",
          "173329.843000",
          "173332.843000",
          "173335.343000",
          "173337.843000",
          "173340.343000",
          "173342.843000",
          "173345.843000",
          "173348.343000",
          "173350.843000",
          "173353.343000",
          "173355.843000",
          "173358.843000",
          "173401.343000",
          "173403.843000",
          "173406.343000",
          "173408.843000",
          "173411.843000",
          "173414.343000",
          "173416.843000",
          "173419.343000",
          "173421.843000",
          "173424.843000",
          "173427.343000",
          "173429.843000",
          "173432.343000",
          "173434.843000",
          "173437.843000",
          "173440.343000",
          "173442.843000",
          "173445.343000",
          "173447.843000",
          "173450.843000",
          "173453.343000",
          "173455.843000",
          "173458.343000",
          "173500.843000",
          "173503.843000",
          "173506.343000",
          "173508.843000",
          "173511.343000",
          "173513.843000",
          "173516.843000",
          "173519.343000",
          "173521.843000",
          "173524.343000",
          "173526.843000",
          "173529.843000",
          "173532.343000",
          "173534.843000",
          "173537.343000",
          "173539.843000",
          "173542.843000",
          "173545.343000",
          "173547.843000",
          "173550.343000",
          "173552.843000",
          "173555.843000",
          "173558.343000",
          "173600.843000",
          "173603.343000",
          "173605.843000",
          "173608.843000",
          "173611.343000",
          "173613.843000",
          "173616.343000",
          "173618.843000",
          "173621.843000",
          "173624.343000",
          "173626.843000",
          "173629.343000",
          "173631.843000",
          "173634.843000",
          "173637.343000",
          "173639.843000",
          "173642.343000",
          "173644.843000",
          "173647.843000",
          "173650.343000",
          "173652.843000",
          "173655.343000",
          "173657.843000",
          "173700.843000",
          "173703.343000",
          "173705.843000",
          "173708.343000",
          "173710.843000",
          "173713.843000",
          "173716.343000",
          "173723.578000"
        ],
        "InstanceNumber": [
          1,
          2,
          3,
          4,
          5,
          6,
          7,
          8,
          9,
          10,
          11,
          12,
          13,
          14,
          15,
          16,
          17,
          18,
          19,
          20,
          21,
          22,
          23,
          24,
          25,
          26,
          27,
          28,
          29,
          30,
          31,
          32,
          33,
          34,
          35,
          36,
          37,
          38,
          39,
          40,
          41,
          42,
          43,
          44,
          45,
          46,
          47,
          48,
          49,
          50,
          51,
          52,
          53,
          54,
          55,
          56,
          57,
          58,
          59,
          60,
          61,
          62,
          63,
          64,
          65,
          66,
          67,
          68,
          69,
          70,
          71,
          72,
          73,
          74,
          75,
          76,
          77,
          78,
          79,
          80,
          81,
          82,
          83,
          84,
          85,
          86,
          87,
          88,
          89,
          90,
          91,
          92,
          93,
          94,
          95,
          96,
          97,
          98,
          99,
          100,
          101,
          102,
          103,
          104,
          105,
          106,
          107,
          108,
          109,
          110,
          111,
          112,
          113,
          114,
          115,
          116,
          117,
          118,
          119,
          120,
          121,
          122,
          123,
          124,
          125,
          126,
          127,
          128,
          129,
          130,
          131,
          132,
          133,
          134,
          135,
          136,
          137,
          138,
          139,
          140,
          141,
          142,
          143,
          144,
          145,
          146,
          147,
          148,
          149,
          150
        ],
        "WindowCenter": [
          875.0,
          873.0,
          873.0,
          873.0,
          872.0,
          872.0,
          873.0,
          872.0,
          873.0,
          873.0,
          872.0,
          872.0,
          872.0,
          872.0,
          873.0,
          872.0,
          872.0,
          873.0,
          872.0,
          872.0,
          874.0,
          872.0,
          872.0,
          873.0,
          872.0,
          872.0,
          872.0,
          873.0,
          872.0,
          872.0,
          872.0,
          872.0,
          872.0,
          872.0,
          874.0,
          874.0,
          872.0,
          871.0,
          872.0,
          873.0,
          872.0,
          872.0,
          872.0,
          872.0,
          873.0,
          873.0,
          872.0,
          872.0,
          872.0,
          872.0,
          872.0,
          872.0,
          873.0,
          874.0,
          874.0,
          874.0,
          872.0,
          872.0,
          872.0,
          871.0,
          872.0,
          873.0,
          874.0,
          873.0,
          872.0,
          872.0,
          872.0,
          872.0,
          872.0,
          874.0,
          874.0,
          875.0,
          873.0,
          872.0,
          872.0,
          872.0,
          872.0,
          873.0,
          873.0,
          873.0,
          872.0,
          872.0,
          872.0,
          872.0,
          872.0,
          873.0,
          873.0,
          872.0,
          872.0,
          874.0,
          875.0,
          873.0,
          872.0,
          872.0,
          873.0,
          872.0,
          871.0,
          872.0,
          872.0,
          873.0,
          874.0,
          874.0,
          873.0,
          872.0,
          872.0,
          871.0,
          872.0,
          873.0,
          872.0,
          872.0,
          873.0,
          873.0,
          873.0,
          874.0,
          873.0,
          873.0,
          873.0,
          874.0,
          873.0,
          872.0,
          873.0,
          873.0,
          873.0,
          873.0,
          873.0,
          873.0,
          873.0,
          872.0,
          873.0,
          875.0,
          873.0,
          872.0,
          873.0,
          874.0,
          874.0,
          874.0,
          874.0,
          874.0,
          873.0,
          874.0,
          873.0,
          873.0,
          873.0,
          873.0,
          873.0,
          873.0,
          874.0,
          873.0,
          873.0,
          873.0
        ],
        "WindowWidth": [
          2035.0,
          2029.0,
          2029.0,
          2028.0,
          2024.0,
          2025.0,
          2028.0,
          2024.0,
          2028.0,
          2028.0,
          2022.0,
          2026.0,
          2025.0,
          2025.0,
          2027.0,
          2025.0,
          2025.0,
          2026.0,
          2023.0,
          2025.0,
          2032.0,
          2023.0,
          2025.0,
          2026.0,
          2024.0,
          2024.0,
          2026.0,
          2028.0,
          2024.0,
          2024.0,
          2026.0,
          2026.0,
          2023.0,
          2025.0,
          2031.0,
          2031.0,
          2021.0,
          2021.0,
          2026.0,
          2027.0,
          2023.0,
          2025.0,
          2025.0,
          2025.0,
          2026.0,
          2026.0,
          2023.0,
          2025.0,
          2024.0,
          2024.0,
          2023.0,
          2024.0,
          2030.0,
          2032.0,
          2030.0,
          2031.0,
          2022.0,
          2022.0,
          2022.0,
          2021.0,
          2024.0,
          2030.0,
          2031.0,
          2028.0,
          2024.0,
          2025.0,
          2023.0,
          2023.0,
          2025.0,
          2031.0,
          2032.0,
          2035.0,
          2028.0,
          2024.0,
          2024.0,
          2023.0,
          2024.0,
          2028.0,
          2027.0,
          2026.0,
          2024.0,
          2024.0,
          2023.0,
          2022.0,
          2022.0,
          2029.0,
          2029.0,
          2023.0,
          2024.0,
          2033.0,
          2036.0,
          2027.0,
          2025.0,
          2025.0,
          2026.0,
          2023.0,
          2020.0,
          2024.0,
          2026.0,
          2030.0,
          2032.0,
          2032.0,
          2027.0,
          2022.0,
          2023.0,
          2021.0,
          2023.0,
          2029.0,
          2025.0,
          2022.0,
          2028.0,
          2028.0,
          2029.0,
          2032.0,
          2030.0,
          2028.0,
          2027.0,
          2032.0,
          2027.0,
          2025.0,
          2027.0,
          2027.0,
          2028.0,
          2028.0,
          2027.0,
          2027.0,
          2028.0,
          2025.0,
          2028.0,
          2034.0,
          2028.0,
          2026.0,
          2028.0,
          2030.0,
          2030.0,
          2029.0,
          2032.0,
          2029.0,
          2028.0,
          2030.0,
          2027.0,
          2025.0,
          2028.0,
          2027.0,
          2027.0,
          2028.0,
          2028.0,
          2027.0,
          2028.0,
          2028.0
        ]
      },
      "slices": {}
    }
  },
  "dummy_trs": 1,
  "dvars_nstd": 76.20240046574322,
  "dvars_std": 1.0678373939189187,
  "dvars_vstd": 1.0107561424324325,
  "efc": 0.5525317622887479,
  "fber": 356.35162353515625,
  "fd_mean": 0.0441474484859878,
  "fd_num": 1,
  "fd_perc": 0.6711409395973155,
  "fwhm_avg": 2.99669693890135,
  "fwhm_x": 2.849888224176119,
  "fwhm_y": 2.8442208457845948,
  "fwhm_z": 3.2959817467433377,
  "gcor": 0.00130208,
  "gsr_x": -0.002630560891702771,
  "gsr_y": 0.03657648712396622,
  "provenance": {
    "md5sum": "c36dd9b1f2cbe4e10cb7fe19b856f931",
    "settings": {
      "fd_thres": 0.2,
      "testing": false
    },
    "software": "mriqc",
    "version": "22.0.0rc1",
    "webapi_port": null,
    "webapi_url": "https://mriqc.nimh.nih.gov/api/v1"
  },
  "size_t": 149,
  "size_x": 188,
  "size_y": 188,
  "size_z": 46,
  "snr": 2.035458395338542,
  "spacing_tr": 2.5999999046325684,
  "spacing_x": 1.0957447290420532,
  "spacing_y": 1.0957447290420532,
  "spacing_z": 1.100000023841858,
  "summary_bg_k": 80.21007934175202,
  "summary_bg_mad": 22.557442328714885,
  "summary_bg_mean": 81.41683959960938,
  "summary_bg_median": 49.13422775268555,
  "summary_bg_n": 1056481.0,
  "summary_bg_p05": 31.087247848510742,
