{
  "aor": 0.0006293333333333333,
  "aqi": 0.011846170666666666,
  "bids_meta": {
    "AcquisitionMatrixPE": 188,
    "AcquisitionNumber": 1,
    "AcquisitionTime": "17:38:23.167500",
    "BandwidthPerPixelPhaseEncode": 19.46,
    "BaseResolution": 188,
    "ConversionSoftware": "dcm2niix",
    "ConversionSoftwareVersion": "v1.0.20180606 GCC4.8.5",
    "DelayTime": 1.2,
    "DerivedVendorReportedEchoSpacing": 0.000820013,
    "DeviceSerialNumber": "18930",
    "DwellTime": 1.9e-06,
    "EchoTime": 0.02,
    "EffectiveEchoSpacing": 0.000273338,
    "FlipAngle": 80,
    "ImageComments": "Unaliased_MB2_PE2",
    "ImageOrientationPatientDICOM": [
      0.997424,
      0.0677674,
      -0.0235157,
      -0.0335272,
      0.150615,
      -0.988024
    ],
    "ImageType": [
      "ORIGINAL",
      "PRIMARY",
      "M",
      "MB",
      "ND",
      "MOSAIC"
    ],
    "InPlanePhaseEncodingDirectionDICOM": "COL",
    "InstitutionAddress": "Oxfordlaan_55_Maastricht_753AAF_Limburg_NL_6229_EV",
    "InstitutionName": "Scannexus",
    "InstitutionalDepartmentName": "MRI_7T",
    "MRAcquisitionType": "2D",
    "MagneticFieldStrength": 6.98,
    "Manufacturer": "Siemens",
    "ManufacturersModelName": "Investigational_Device_7T",
    "Modality": "MR",
    "MultibandAccelerationFactor": 2,
    "ParallelReductionFactorInPlane": 3,
    "PartialFourier": 0.75,
    "PatientPosition": "HFS",
    "PercentPhaseFOV": 100,
    "PhaseEncodingDirection": "j",
    "PhaseEncodingSteps": 141,
    "PhaseResolution": 1,
    "PixelBandwidth": 1400,
    "ProcedureStepDescription": "FeDem_Faruk",
    "ProtocolName": "cmrr_mbep2d_bold_AP_run5",
    "PulseSequenceDetails": "%CustomerSeq%_cmrr_mbep2d_bold",
    "ReceiveCoilName": "32Ch_Head_7T",
    "ReconMatrixPE": 188,
    "RepetitionTime": 2.6,
    "SAR": 0.0619169,
    "ScanOptions": "PFP_FS",
    "ScanningSequence": "EP",
    "SequenceName": "epfid2d1_188",
    "SequenceVariant": "SK_SS",
    "SeriesDescription": "cmrr_mbep2d_bold_AP_run5",
    "SeriesNumber": 16,
    "ShimSetting": [
      123,
      -79,
      487,
      312,
      -62,
      576,
      7,
      43
    ],
    "SliceThickness": 1.1,
    "SliceTiming": [
      0,
      0.7325,
      0.06,
      0.7925,
      0.12,
      0.855,
      0.1825,
      0.915,
      0.2425,
      0.9775,
      0.305,
      1.0375,
      0.365,
      1.1,
      0.4275,
      1.16,
      0.4875,
      1.22,
      0.55,
      1.2825,
      0.61,
      1.3425,
      0.67,
      0,
      0.7325,
      0.06,
      0.7925,
      0.12,
      0.855,
      0.1825,
      0.915,
      0.2425,
      0.9775,
      0.305,
      1.0375,
      0.365,
      1.1,
      0.4275,
      1.16,
      0.4875,
      1.22,
      0.55,
      1.2825,
      0.61,
      1.3425,
      0.67
    ],
    "SoftwareVersions": "syngo_MR_B17",
    "SpacingBetweenSlices": 1.1,
    "StationName": "MRC18930",
    "TaskName": "auditory",
    "TotalReadoutTime": 0.0511141,
    "TxRefAmp": 210,
    "dataset": "ds001942",
    "dcmmeta_affine": [
      [
        -1.0929220914840698,
        -0.036737244576215744,
        0.06975541263818741,
        99.55953979492188
      ],
      [
        -0.07425578683614731,
        0.1650356501340866,
        -1.084893822669983,
        39.54338836669922
      ],
      [
        -0.025767162442207336,
        1.0826219320297241,
        0.16774903237819672,
        -115.55513000488281
      ],
      [
        0.0,
        0.0,
        0.0,
        1.0
      ]
    ],
    "dcmmeta_reorient_transform": [
      [
        0.0,
        -1.0,
        0.0,
        187.0
      ],
      [
        1.0,
        0.0,
        0.0,
        0.0
      ],
      [
        0.0,
        0.0,
        1.0,
        0.0
      ],
      [
        0.0,
        0.0,
        0.0,
        1.0
      ]
    ],
    "dcmmeta_shape": [
      188,
      188,
      46,
      150
    ],
    "dcmmeta_slice_dim": 2,
    "dcmmeta_version": 0.6,
    "global": {
      "const": {
        "AcquisitionMatrix": [
          188,
          0,
          0,
          188
        ],
        "AngioFlag": "N",
        "BitsAllocated": 16,
        "BitsStored": 12,
        "Columns": 1316,
        "EchoNumbers": 1,
        "EchoTime": 20.0,
        "EchoTrainLength": 1,
        "FlipAngle": 80.0,
        "HighBit": 11,
        "ImageOrientationPatient": [
          0.99742397753531,
          0.06776741630499,
          -0.0235156612705,
          -0.0335271930401,
          0.15061505590442,
          -0.9880238014652
        ],
        "ImagePositionPatient": [
          -688.37791353932,
          -205.36542862854,
          712.02657917517
        ],
        "ImageType": [
          "ORIGINAL",
          "PRIMARY",
          "M",
          "MB",
          "ND",
          "MOSAIC"
        ],
        "ImagedNucleus": "1H",
        "ImagingFrequency": 297.205617,
        "InPlanePhaseEncodingDirection": "COL",
        "LargestImagePixelValue": 4095,
        "MRAcquisitionType": "2D",
        "MagneticFieldStrength": 6.98,
        "Manufacturer": "SIEMENS",
        "ManufacturerModelName": "Investigational_Device_7T",
        "Modality": "MR",
        "NumberOfAverages": 1.0,
        "NumberOfPhaseEncodingSteps": 141,
        "PercentPhaseFieldOfView": 100.0,
        "PercentSampling": 100.0,
        "PerformedProcedureStepStartTime": "164025.968000",
        "PhotometricInterpretation": "MONOCHROME2",
        "PixelBandwidth": 1400.0,
        "PixelRepresentation": 0,
        "PixelSpacing": [
          1.0957447290421,
          1.0957447290421
        ],
        "ProtocolName": "cmrr_mbep2d_bold_AP_run5",
        "RepetitionTime": 2600.0,
        "Rows": 1316,
        "SAR": 0.06191694423694,
        "SamplesPerPixel": 1,
        "ScanOptions": [
          "PFP",
          "FS"
        ],
        "ScanningSequence": "EP",
        "SequenceName": "epfid2d1_188",
        "SequenceVariant": [
          "SK",
          "SS"
        ],
        "SeriesDescription": "cmrr_mbep2d_bold_AP_run5",
        "SeriesNumber": 16,
        "SeriesTime": "173831.640000",
        "SliceLocation": -50.308925679162,
        "SliceThickness": 1.1000000238419,
        "SmallestImagePixelValue": 0,
        "SoftwareVersions": "syngo MR B17",
        "SpacingBetweenSlices": 1.1000000256964,
        "SpecificCharacterSet": "ISO_IR 100",
        "StudyID": "1",
        "StudyTime": "164025.859000",
        "TransmitCoilName": "32Ch_Head_7T",
        "VariableFlipAngleFlag": "N",
        "WindowCenterWidthExplanation": "Algo1",
        "dBdt": 0.0
      },
      "slices": {}
    },
    "modality": "bold",
    "run_id": 5,
    "session_id": "SES03",
    "subject_id": "S01",
    "task_id": "auditory",
    "time": {
      "samples": {
        "AcquisitionNumber": [
          1,
          2,
          3,
          4,
          5,
          6,
          7,
          8,
          9,
          10,
          11,
          12,
          13,
          14,
          15,
          16,
          17,
          18,
          19,
          20,
          21,
          22,
          23,
          24,
          25,
          26,
          27,
          28,
          29,
          30,
          31,
          32,
          33,
          34,
          35,
          36,
          37,
          38,
          39,
          40,
          41,
          42,
          43,
          44,
          45,
          46,
          47,
          48,
          49,
          50,
          51,
          52,
          53,
          54,
          55,
          56,
          57,
          58,
          59,
          60,
          61,
          62,
          63,
          64,
          65,
          66,
          67,
          68,
          69,
          70,
          71,
          72,
          73,
          74,
          75,
          76,
          77,
          78,
          79,
          80,
          81,
          82,
          83,
          84,
          85,
          86,
          87,
          88,
          89,
          90,
          91,
          92,
          93,
          94,
          95,
          96,
          97,
          98,
          99,
          100,
          101,
          102,
          103,
          104,
          105,
          106,
          107,
          108,
          109,
          110,
          111,
          112,
          113,
          114,
          115,
          116,
          117,
          118,
          119,
          120,
          121,
          122,
          123,
          124,
          125,
          126,
          127,
          128,
          129,
          130,
          131,
          132,
          133,
          134,
          135,
          136,
          137,
          138,
          139,
          140,
          141,
          142,
          143,
          144,
          145,
          146,
          147,
          148,
          149,
          150
        ],
        "AcquisitionTime": [
          "173823.167500",
          "173825.777500",
          "173828.387500",
          "173830.997500",
          "173833.607500",
          "173836.217500",
          "173838.830000",
          "173841.440000",
          "173844.050000",
          "173846.660000",
          "173849.270000",
          "173851.882500",
          "173854.492500",
          "173857.102500",
          "173859.712500",
          "173902.322500",
          "173904.932500",
          "173907.545000",
          "173910.155000",
          "173912.765000",
          "173915.375000",
          "173917.985000",
          "173920.595000",
          "173923.207500",
          "173925.817500",
          "173928.427500",
          "173931.037500",
          "173933.647500",
          "173936.260000",
          "173938.870000",
          "173941.480000",
          "173944.090000",
          "173946.700000",
          "173949.310000",
          "173951.922500",
          "173954.532500",
          "173957.142500",
          "173959.752500",
          "174002.362500",
          "174004.972500",
          "174007.585000",
          "174010.195000",
          "174012.805000",
          "174015.415000",
          "174018.025000",
          "174020.637500",
          "174023.247500",
          "174025.857500",
          "174028.467500",
          "174031.077500",
          "174033.687500",
          "174036.300000",
          "174038.910000",
          "174041.520000",
          "174044.130000",
          "174046.740000",
          "174049.350000",
          "174051.962500",
          "174054.572500",
          "174057.182500",
          "174059.792500",
          "174102.402500",
          "174105.015000",
          "174107.625000",
          "174110.235000",
          "174112.845000",
          "174115.455000",
          "174118.065000",
          "174120.677500",
          "174123.287500",
          "174125.897500",
          "174128.507500",
          "174131.117500",
          "174133.727500",
          "174136.340000",
          "174138.950000",
          "174141.560000",
          "174144.170000",
          "174146.780000",
          "174149.392500",
          "174152.002500",
          "174154.612500",
          "174157.222500",
          "174159.832500",
          "174202.442500",
          "174205.055000",
          "174207.665000",
          "174210.275000",
          "174212.885000",
          "174215.495000",
          "174218.107500",
          "174220.717500",
          "174223.327500",
          "174225.937500",
          "174228.547500",
          "174231.157500",
          "174233.770000",
          "174236.380000",
          "174238.990000",
          "174241.600000",
          "174244.210000",
          "174246.820000",
          "174249.432500",
          "174252.042500",
          "174254.652500",
          "174257.262500",
          "174259.872500",
          "174302.485000",
          "174305.095000",
          "174307.705000",
          "174310.315000",
          "174312.925000",
          "174315.535000",
          "174318.147500",
          "174320.757500",
          "174323.367500",
          "174325.977500",
          "174328.587500",
          "174331.197500",
          "174333.810000",
          "174336.420000",
          "174339.030000",
          "174341.640000",
          "174344.250000",
          "174346.862500",
          "174349.472500",
          "174352.082500",
          "174354.692500",
          "174357.302500",
          "174359.912500",
          "174402.525000",
          "174405.135000",
          "174407.745000",
          "174410.355000",
          "174412.965000",
          "174415.575000",
          "174418.187500",
          "174420.797500",
          "174423.407500",
          "174426.017500",
          "174428.627500",
          "174431.240000",
          "174433.850000",
          "174436.460000",
          "174439.070000",
          "174441.680000",
          "174444.290000",
          "174446.902500",
          "174449.512500",
          "174452.122500"
        ],
        "ContentTime": [
          "173831.656000",
          "173831.656000",
          "173832.125000",
          "173834.625000",
          "173837.125000",
          "173839.625000",
          "173842.625000",
          "173845.125000",
          "173847.625000",
          "173850.125000",
          "173852.625000",
          "173855.625000",
          "173858.125000",
          "173900.625000",
          "173903.125000",
          "173905.625000",
          "173908.625000",
          "173911.125000",
          "173913.625000",
          "173916.125000",
          "173918.625000",
          "173921.625000",
          "173924.125000",
          "173926.625000",
          "173929.125000",
          "173931.625000",
          "173934.625000",
          "173937.125000",
          "173939.625000",
          "173942.125000",
          "173944.625000",
          "173947.625000",
          "173950.125000",
          "173952.625000",
          "173955.125000",
          "173957.625000",
          "174000.625000",
          "174003.125000",
          "174005.625000",
          "174008.125000",
          "174010.625000",
          "174013.625000",
          "174016.125000",
          "174018.625000",
          "174021.125000",
          "174023.625000",
          "174026.625000",
          "174029.125000",
          "174031.625000",
          "174034.125000",
          "174036.625000",
          "174039.625000",
          "174042.125000",
          "174044.625000",
          "174047.125000",
          "174049.625000",
          "174052.625000",
          "174055.125000",
          "174057.625000",
          "174100.125000",
          "174102.625000",
          "174105.625000",
          "174108.125000",
          "174110.625000",
          "174113.125000",
          "174115.625000",
          "174118.625000",
          "174121.125000",
          "174123.625000",
          "174126.125000",
          "174128.625000",
          "174131.625000",
          "174134.125000",
          "174136.625000",
          "174139.125000",
          "174141.625000",
          "174144.625000",
          "174147.125000",
          "174149.625000",
          "174152.125000",
          "174154.625000",
          "174157.625000",
          "174200.125000",
          "174202.625000",
          "174205.125000",
          "174207.625000",
          "174210.625000",
          "174213.125000",
          "174215.625000",
          "174218.125000",
          "174220.625000",
          "174223.625000",
          "174226.125000",
          "174228.625000",
          "174231.125000",
          "174233.625000",
          "174236.625000",
          "174239.125000",
          "174241.625000",
          "174244.125000",
          "174246.625000",
          "174249.625000",
          "174252.125000",
          "174254.625000",
          "174257.125000",
          "174259.625000",
          "174302.625000",
          "174305.125000",
          "174307.625000",
          "174310.125000",
          "174312.625000",
          "174315.625000",
          "174318.125000",
          "174320.625000",
          "174323.125000",
          "174325.625000",
          "174328.625000",
          "174331.125000",
          "174333.625000",
          "174336.125000",
          "174338.625000",
          "174341.625000",
          "174344.125000",
          "174346.625000",
          "174349.125000",
          "174351.625000",
          "174354.625000",
          "174357.125000",
          "174359.625000",
          "174402.125000",
          "174404.625000",
          "174407.625000",
          "174410.125000",
          "174412.625000",
          "174415.125000",
          "174417.625000",
          "174420.625000",
          "174423.125000",
          "174425.625000",
          "174428.125000",
          "174430.625000",
          "174433.625000",
          "174436.125000",
          "174438.625000",
          "174441.125000",
          "174443.625000",
          "174446.625000",
          "174449.125000",
          "174451.625000",
          "174458.968000"
        ],
        "InstanceCreationTime": [
          "173831.656000",
          "173831.656000",
          "173832.125000",
          "173834.625000",
          "173837.125000",
          "173839.625000",
          "173842.625000",
          "173845.125000",
          "173847.625000",
          "173850.125000",
          "173852.625000",
          "173855.625000",
          "173858.125000",
          "173900.625000",
          "173903.125000",
          "173905.625000",
          "173908.625000",
          "173911.125000",
          "173913.625000",
          "173916.125000",
          "173918.625000",
          "173921.625000",
          "173924.125000",
          "173926.625000",
          "173929.125000",
          "173931.625000",
          "173934.625000",
          "173937.125000",
          "173939.625000",
          "173942.125000",
          "173944.625000",
          "173947.625000",
          "173950.125000",
          "173952.625000",
          "173955.125000",
          "173957.625000",
          "174000.625000",
          "174003.125000",
          "174005.625000",
          "174008.125000",
          "174010.625000",
          "174013.625000",
          "174016.125000",
          "174018.625000",
          "174021.125000",
          "174023.625000",
          "174026.625000",
          "174029.125000",
          "174031.625000",
          "174034.125000",
          "174036.625000",
          "174039.625000",
          "174042.125000",
          "174044.625000",
          "174047.125000",
          "174049.625000",
          "174052.625000",
          "174055.125000",
          "174057.625000",
          "174100.125000",
          "174102.625000",
          "174105.625000",
          "174108.125000",
          "174110.625000",
          "174113.125000",
          "174115.625000",
          "174118.625000",
          "174121.125000",
          "174123.625000",
          "174126.125000",
          "174128.625000",
          "174131.625000",
          "174134.125000",
          "174136.625000",
          "174139.125000",
          "174141.625000",
          "174144.625000",
          "174147.125000",
          "174149.625000",
          "174152.125000",
          "174154.625000",
          "174157.625000",
          "174200.125000",
          "174202.625000",
          "174205.125000",
          "174207.625000",
          "174210.625000",
          "174213.125000",
          "174215.625000",
          "174218.125000",
          "174220.625000",
          "174223.625000",
          "174226.125000",
          "174228.625000",
          "174231.125000",
          "174233.625000",
          "174236.625000",
          "174239.125000",
          "174241.625000",
          "174244.125000",
          "174246.625000",
          "174249.625000",
          "174252.125000",
          "174254.625000",
          "174257.125000",
          "174259.625000",
          "174302.625000",
          "174305.125000",
          "174307.625000",
          "174310.125000",
          "174312.625000",
          "174315.625000",
          "174318.125000",
          "174320.625000",
          "174323.125000",
          "174325.625000",
          "174328.625000",
          "174331.125000",
          "174333.625000",
          "174336.125000",
          "174338.625000",
          "174341.625000",
          "174344.125000",
          "174346.625000",
          "174349.125000",
          "174351.625000",
          "174354.625000",
          "174357.125000",
          "174359.625000",
          "174402.125000",
          "174404.625000",
          "174407.625000",
          "174410.125000",
          "174412.625000",
          "174415.125000",
          "174417.625000",
          "174420.625000",
          "174423.125000",
          "174425.625000",
          "174428.125000",
          "174430.625000",
          "174433.625000",
          "174436.125000",
          "174438.625000",
          "174441.125000",
          "174443.625000",
          "174446.625000",
          "174449.125000",
          "174451.625000",
          "174458.968000"
        ],
        "InstanceNumber": [
          1,
          2,
          3,
          4,
          5,
          6,
          7,
          8,
          9,
          10,
          11,
          12,
          13,
          14,
          15,
          16,
          17,
          18,
          19,
          20,
          21,
          22,
          23,
          24,
          25,
          26,
          27,
          28,
          29,
          30,
          31,
          32,
          33,
          34,
          35,
          36,
          37,
          38,
          39,
          40,
          41,
          42,
          43,
          44,
          45,
          46,
          47,
          48,
          49,
          50,
          51,
          52,
          53,
          54,
          55,
          56,
          57,
          58,
          59,
          60,
          61,
          62,
          63,
          64,
          65,
          66,
          67,
          68,
          69,
          70,
          71,
          72,
          73,
          74,
          75,
          76,
          77,
          78,
          79,
          80,
          81,
          82,
          83,
          84,
          85,
          86,
          87,
          88,
          89,
          90,
          91,
          92,
          93,
          94,
          95,
          96,
          97,
          98,
          99,
          100,
          101,
          102,
          103,
          104,
          105,
          106,
          107,
          108,
          109,
          110,
          111,
          112,
          113,
          114,
          115,
          116,
          117,
          118,
          119,
          120,
          121,
          122,
          123,
          124,
          125,
          126,
          127,
          128,
          129,
          130,
          131,
          132,
          133,
          134,
          135,
          136,
          137,
          138,
          139,
          140,
          141,
          142,
          143,
          144,
          145,
          146,
          147,
          148,
          149,
          150
        ],
        "WindowCenter": [
          874.0,
          873.0,
          873.0,
          873.0,
          874.0,
          873.0,
          872.0,
          873.0,
          872.0,
          872.0,
          873.0,
          873.0,
          872.0,
          873.0,
          873.0,
          872.0,
          873.0,
          873.0,
          873.0,
          873.0,
          873.0,
          873.0,
          872.0,
          872.0,
          872.0,
          873.0,
          873.0,
          873.0,
          872.0,
          872.0,
          872.0,
          873.0,
          873.0,
          873.0,
          872.0,
          872.0,
          872.0,
          872.0,
          872.0,
          872.0,
          872.0,
          872.0,
          872.0,
          872.0,
          872.0,
          872.0,
          872.0,
          872.0,
          872.0,
          872.0,
          873.0,
          872.0,
          873.0,
          872.0,
          872.0,
          873.0,
          873.0,
          873.0,
          872.0,
          872.0,
          873.0,
          873.0,
          873.0,
          873.0,
          873.0,
          872.0,
          872.0,
          872.0,
          873.0,
          873.0,
          873.0,
          873.0,
          874.0,
          873.0,
          873.0,
          874.0,
          874.0,
          873.0,
          872.0,
          874.0,
          874.0,
          872.0,
          873.0,
          873.0,
          873.0,
          873.0,
          872.0,
          873.0,
          872.0,
          872.0,
          873.0,
          873.0,
          874.0,
          873.0,
          872.0,
          873.0,
          872.0,
          872.0,
          873.0,
          873.0,
          873.0,
          873.0,
          873.0,
          873.0,
          873.0,
          873.0,
          873.0,
          873.0,
          873.0,
          874.0,
          873.0,
          874.0,
          873.0,
          873.0,
          873.0,
          873.0,
          874.0,
          873.0,
          873.0,
          873.0,
          874.0,
          873.0,
          873.0,
          874.0,
          874.0,
          873.0,
          874.0,
          874.0,
          875.0,
          872.0,
          872.0,
          873.0,
          874.0,
          875.0,
          873.0,
          873.0,
          874.0,
          873.0,
          873.0,
          874.0,
          873.0,
          873.0,
          873.0,
          873.0,
          874.0,
          873.0,
          873.0,
          873.0,
          874.0,
          873.0
        ],
        "WindowWidth": [
          2031.0,
          2027.0,
          2025.0,
          2027.0,
          2028.0,
          2026.0,
          2024.0,
          2027.0,
          2023.0,
          2022.0,
          2025.0,
          2027.0,
          2022.0,
          2026.0,
          2025.0,
          2023.0,
          2027.0,
          2027.0,
          2026.0,
          2026.0,
          2025.0,
          2024.0,
          2023.0,
          2022.0,
          2024.0,
          2026.0,
          2026.0,
          2026.0,
          2024.0,
          2024.0,
          2024.0,
          2025.0,
          2025.0,
          2025.0,
          2022.0,
          2024.0,
          2023.0,
          2022.0,
          2021.0,
          2021.0,
          2022.0,
          2023.0,
          2022.0,
          2021.0,
          2024.0,
          2022.0,
          2024.0,
          2025.0,
          2024.0,
          2023.0,
          2025.0,
          2024.0,
          2026.0,
          2024.0,
          2024.0,
          2024.0,
          2024.0,
          2025.0,
          2023.0,
          2023.0,
          2026.0,
          2025.0,
          2026.0,
          2028.0,
          2026.0,
          2023.0,
          2024.0,
          2025.0,
          2025.0,
          2027.0,
          2025.0,
          2027.0,
          2029.0,
          2026.0,
          2027.0,
          2029.0,
          2029.0,
          2026.0,
          2025.0,
          2030.0,
          2030.0,
          2024.0,
          2025.0,
          2025.0,
          2025.0,
          2024.0,
          2023.0,
          2026.0,
          2024.0,
          2024.0,
          2026.0,
          2027.0,
          2030.0,
          2024.0,
          2024.0,
          2025.0,
          2023.0,
          2023.0,
          2026.0,
          2027.0,
          2027.0,
          2028.0,
          2028.0,
          2025.0,
          2026.0,
          2025.0,
          2027.0,
          2028.0,
          2028.0,
          2029.0,
          2026.0,
          2028.0,
          2027.0,
          2026.0,
          2028.0,
          2027.0,
          2028.0,
          2027.0,
          2027.0,
          2026.0,
          2030.0,
          2026.0,
          2026.0,
          2027.0,
          2029.0,
          2026.0,
          2030.0,
          2031.0,
          2032.0,
          2023.0,
          2024.0,
          2027.0,
          2031.0,
          2032.0,
          2027.0,
          2027.0,
          2030.0,
          2025.0,
          2028.0,
          2028.0,
          2025.0,
          2026.0,
          2028.0,
          2025.0,
          2029.0,
          2026.0,
          2025.0,
          2026.0,
          2029.0,
          2026.0
        ]
      },
      "slices": {}
    }
  },
  "dummy_trs": 0,
  "dvars_nstd": 76.25771618489928,
  "dvars_std": 1.0791000259731545,
  "dvars_vstd": 1.0214896638255033,
  "efc": 0.5534220749976688,
  "fber": 349.0030822753906,
  "fd_mean": 0.037233017681491586,
  "fd_num": 0,
  "fd_perc": 0.0,
  "fwhm_avg": 2.9813267364112535,
  "fwhm_x": 2.8735068639140673,
  "fwhm_y": 2.7967097799129723,
  "fwhm_z": 3.273763565406722,
  "gcor": 0.000901807,
  "gsr_x": 0.007940019480884075,
  "gsr_y": 0.03329591080546379,
  "provenance": {
    "md5sum": "d661fed74df717b08e82e258b65d20c1",
    "settings": {
      "fd_thres": 0.2,
      "testing": false
    },
    "software": "mriqc",
    "version": "23.0.1",
    "webapi_port": null,
    "webapi_url": "https://mriqc.nimh.nih.gov/api/v1"
  },
  "size_t": 150,
  "size_x": 188,
  "size_y": 188,
  "size_z": 46,
  "snr": 2.0550073886167635,
  "spacing_tr": 2.5999999046325684,
  "spacing_x": 1.0957447290420532,
  "spacing_y": 1.0957447290420532,
  "spacing_z": 1.100000023841858,
  "summary_bg_k": 74.27185743031474,
  "summary_bg_mad": 23.395461198201236,
  "summary_bg_mean": 86.23014831542969,
  "summary_bg_median": 49.77333450317383,
  "summary_bg_n": 1065185.0,
  "summary_bg_p05": 31.260000228881836,
  "summary_bg_p95": 247.70533447265578,
