{
  "aor": 0.0005899328859060403,
  "aqi": 0.012052371140939598,
  "bids_meta": {
    "AcquisitionMatrixPE": 188,
    "AcquisitionNumber": 1,
    "AcquisitionTime": "18:19:36.100000",
    "BandwidthPerPixelPhaseEncode": 19.46,
    "BaseResolution": 188,
    "ConversionSoftware": "dcm2niix",
    "ConversionSoftwareVersion": "v1.0.20180606 GCC4.8.5",
    "DelayTime": 1.2,
    "DerivedVendorReportedEchoSpacing": 0.000820013,
    "DeviceSerialNumber": "18930",
    "DwellTime": 1.9e-06,
    "EchoTime": 0.02,
    "EffectiveEchoSpacing": 0.000273338,
    "FlipAngle": 80,
    "ImageComments": "Unaliased_MB2_PE2",
    "ImageOrientationPatientDICOM": [
      0.997424,
      0.0677674,
      -0.0235157,
      -0.0335272,
      0.150615,
      -0.988024
    ],
    "ImageType": [
      "ORIGINAL",
      "PRIMARY",
      "M",
      "MB",
      "ND",
      "MOSAIC"
    ],
    "InPlanePhaseEncodingDirectionDICOM": "COL",
    "InstitutionAddress": "Oxfordlaan_55_Maastricht_753AAF_Limburg_NL_6229_EV",
    "InstitutionName": "Scannexus",
    "InstitutionalDepartmentName": "MRI_7T",
    "MRAcquisitionType": "2D",
    "MagneticFieldStrength": 6.98,
    "Manufacturer": "Siemens",
    "ManufacturersModelName": "Investigational_Device_7T",
    "Modality": "MR",
    "MultibandAccelerationFactor": 2,
    "ParallelReductionFactorInPlane": 3,
    "PartialFourier": 0.75,
    "PatientPosition": "HFS",
    "PercentPhaseFOV": 100,
    "PhaseEncodingDirection": "j",
    "PhaseEncodingSteps": 141,
    "PhaseResolution": 1,
    "PixelBandwidth": 1400,
    "ProcedureStepDescription": "FeDem_Faruk",
    "ProtocolName": "cmrr_mbep2d_bold_AP_run10",
    "PulseSequenceDetails": "%CustomerSeq%_cmrr_mbep2d_bold",
    "ReceiveCoilName": "32Ch_Head_7T",
    "ReconMatrixPE": 188,
    "RepetitionTime": 2.6,
    "SAR": 0.0617812,
    "ScanOptions": "PFP_FS",
    "ScanningSequence": "EP",
    "SequenceName": "epfid2d1_188",
    "SequenceVariant": "SK_SS",
    "SeriesDescription": "cmrr_mbep2d_bold_AP_run10",
    "SeriesNumber": 23,
    "ShimSetting": [
      123,
      -79,
      487,
      312,
      -62,
      576,
      7,
      43
    ],
    "SliceThickness": 1.1,
    "SliceTiming": [
      0,
      0.7325,
      0.06,
      0.795,
      0.1225,
      0.855,
      0.1825,
      0.9175,
      0.245,
      0.9775,
      0.305,
      1.0375,
      0.3675,
      1.1,
      0.4275,
      1.16,
      0.4875,
      1.2225,
      0.55,
      1.2825,
      0.61,
      1.345,
      0.6725,
      0,
      0.7325,
      0.06,
      0.795,
      0.1225,
      0.855,
      0.1825,
      0.9175,
      0.245,
      0.9775,
      0.305,
      1.0375,
      0.3675,
      1.1,
      0.4275,
      1.16,
      0.4875,
      1.2225,
      0.55,
      1.2825,
      0.61,
      1.345,
      0.6725
    ],
    "SoftwareVersions": "syngo_MR_B17",
    "SpacingBetweenSlices": 1.1,
    "StationName": "MRC18930",
    "TaskName": "auditory",
    "TotalReadoutTime": 0.0511141,
    "TxRefAmp": 210,
    "dataset": "ds001942",
    "dcmmeta_affine": [
      [
        -1.0929220914840698,
        -0.036737244576215744,
        0.06975541263818741,
        99.55953979492188
      ],
      [
        -0.07425578683614731,
        0.1650356501340866,
        -1.084893822669983,
        39.54338836669922
      ],
      [
        -0.025767162442207336,
        1.0826219320297241,
        0.16774903237819672,
        -115.55513000488281
      ],
      [
        0.0,
        0.0,
        0.0,
        1.0
      ]
    ],
    "dcmmeta_reorient_transform": [
      [
        0.0,
        -1.0,
        0.0,
        187.0
      ],
      [
        1.0,
        0.0,
        0.0,
        0.0
      ],
      [
        0.0,
        0.0,
        1.0,
        0.0
      ],
      [
        0.0,
        0.0,
        0.0,
        1.0
      ]
    ],
    "dcmmeta_shape": [
      188,
      188,
      46,
      150
    ],
    "dcmmeta_slice_dim": 2,
    "dcmmeta_version": 0.6,
    "global": {
      "const": {
        "AcquisitionMatrix": [
          188,
          0,
          0,
          188
        ],
        "AngioFlag": "N",
        "BitsAllocated": 16,
        "BitsStored": 12,
        "Columns": 1316,
        "EchoNumbers": 1,
        "EchoTime": 20.0,
        "EchoTrainLength": 1,
        "FlipAngle": 80.0,
        "HighBit": 11,
        "ImageOrientationPatient": [
          0.99742397753531,
          0.06776741630499,
          -0.0235156612705,
          -0.0335271930401,
          0.15061505590442,
          -0.9880238014652
        ],
        "ImagePositionPatient": [
          -688.37791353932,
          -205.36542862854,
          712.02657917517
        ],
        "ImageType": [
          "ORIGINAL",
          "PRIMARY",
          "M",
          "MB",
          "ND",
          "MOSAIC"
        ],
        "ImagedNucleus": "1H",
        "ImagingFrequency": 297.205623,
        "InPlanePhaseEncodingDirection": "COL",
        "LargestImagePixelValue": 4095,
        "MRAcquisitionType": "2D",
        "MagneticFieldStrength": 6.98,
        "Manufacturer": "SIEMENS",
        "ManufacturerModelName": "Investigational_Device_7T",
        "Modality": "MR",
        "NumberOfAverages": 1.0,
        "NumberOfPhaseEncodingSteps": 141,
        "PercentPhaseFieldOfView": 100.0,
        "PercentSampling": 100.0,
        "PerformedProcedureStepStartTime": "164025.968000",
        "PhotometricInterpretation": "MONOCHROME2",
        "PixelBandwidth": 1400.0,
        "PixelRepresentation": 0,
        "PixelSpacing": [
          1.0957447290421,
          1.0957447290421
        ],
        "ProtocolName": "cmrr_mbep2d_bold_AP_run10",
        "RepetitionTime": 2600.0,
        "Rows": 1316,
        "SAR": 0.06178121878091,
        "SamplesPerPixel": 1,
        "ScanOptions": [
          "PFP",
          "FS"
        ],
        "ScanningSequence": "EP",
        "SequenceName": "epfid2d1_188",
        "SequenceVariant": [
          "SK",
          "SS"
        ],
        "SeriesDescription": "cmrr_mbep2d_bold_AP_run10",
        "SeriesNumber": 23,
        "SeriesTime": "181945.312000",
        "SliceLocation": -50.308925679162,
        "SliceThickness": 1.1000000238419,
        "SmallestImagePixelValue": 0,
        "SoftwareVersions": "syngo MR B17",
        "SpacingBetweenSlices": 1.1000000256964,
        "SpecificCharacterSet": "ISO_IR 100",
        "StudyID": "1",
        "StudyTime": "164025.859000",
        "TransmitCoilName": "32Ch_Head_7T",
        "VariableFlipAngleFlag": "N",
        "WindowCenterWidthExplanation": "Algo1",
        "dBdt": 0.0
      },
      "slices": {}
    },
    "modality": "bold",
    "run_id": 10,
    "session_id": "SES03",
    "subject_id": "S01",
    "task_id": "auditory",
    "time": {
      "samples": {
        "AcquisitionNumber": [
          1,
          2,
          3,
          4,
          5,
          6,
          7,
          8,
          9,
          10,
          11,
          12,
          13,
          14,
          15,
          16,
          17,
          18,
          19,
          20,
          21,
          22,
          23,
          24,
          25,
          26,
          27,
          28,
          29,
          30,
          31,
          32,
          33,
          34,
          35,
          36,
          37,
          38,
          39,
          40,
          41,
          42,
          43,
          44,
          45,
          46,
          47,
          48,
          49,
          50,
          51,
          52,
          53,
          54,
          55,
          56,
          57,
          58,
          59,
          60,
          61,
          62,
          63,
          64,
          65,
          66,
          67,
          68,
          69,
          70,
          71,
          72,
          73,
          74,
          75,
          76,
          77,
          78,
          79,
          80,
          81,
          82,
          83,
          84,
          85,
          86,
          87,
          88,
          89,
          90,
          91,
          92,
          93,
          94,
          95,
          96,
          97,
          98,
          99,
          100,
          101,
          102,
          103,
          104,
          105,
          106,
          107,
          108,
          109,
          110,
          111,
          112,
          113,
          114,
          115,
          116,
          117,
          118,
          119,
          120,
          121,
          122,
          123,
          124,
          125,
          126,
          127,
          128,
          129,
          130,
          131,
          132,
          133,
          134,
          135,
          136,
          137,
          138,
          139,
          140,
          141,
          142,
          143,
          144,
          145,
          146,
          147,
          148,
          149,
          150
        ],
        "AcquisitionTime": [
          "181936.100000",
          "181938.710000",
          "181941.320000",
          "181943.930000",
          "181946.542500",
          "181949.152500",
          "181951.762500",
          "181954.372500",
          "181956.982500",
          "181959.595000",
          "182002.205000",
          "182004.815000",
          "182007.425000",
          "182010.035000",
          "182012.645000",
          "182015.257500",
          "182017.867500",
          "182020.477500",
          "182023.087500",
          "182025.697500",
          "182028.307500",
          "182030.920000",
          "182033.530000",
          "182036.140000",
          "182038.750000",
          "182041.360000",
          "182043.972500",
          "182046.582500",
          "182049.192500",
          "182051.802500",
          "182054.412500",
          "182057.022500",
          "182059.635000",
          "182102.245000",
          "182104.855000",
          "182107.465000",
          "182110.075000",
          "182112.685000",
          "182115.297500",
          "182117.907500",
          "182120.517500",
          "182123.127500",
          "182125.737500",
          "182128.350000",
          "182130.960000",
          "182133.570000",
          "182136.180000",
          "182138.790000",
          "182141.400000",
          "182144.012500",
          "182146.622500",
          "182149.232500",
          "182151.842500",
          "182154.452500",
          "182157.062500",
          "182159.675000",
          "182202.285000",
          "182204.895000",
          "182207.505000",
          "182210.115000",
          "182212.727500",
          "182215.337500",
          "182217.947500",
          "182220.557500",
          "182223.167500",
          "182225.777500",
          "182228.390000",
          "182231.000000",
          "182233.610000",
          "182236.220000",
          "182238.830000",
          "182241.440000",
          "182244.052500",
          "182246.662500",
          "182249.272500",
          "182251.882500",
          "182254.492500",
          "182257.105000",
          "182259.715000",
          "182302.325000",
          "182304.935000",
          "182307.545000",
          "182310.155000",
          "182312.767500",
          "182315.377500",
          "182317.987500",
          "182320.597500",
          "182323.207500",
          "182325.817500",
          "182328.430000",
          "182331.040000",
          "182333.650000",
          "182336.260000",
          "182338.870000",
          "182341.482500",
          "182344.092500",
          "182346.702500",
          "182349.312500",
          "182351.922500",
          "182354.532500",
          "182357.145000",
          "182359.755000",
          "182402.365000",
          "182404.975000",
          "182407.585000",
          "182410.195000",
          "182412.807500",
          "182415.417500",
          "182418.027500",
          "182420.637500",
          "182423.247500",
          "182425.860000",
          "182428.470000",
          "182431.080000",
          "182433.690000",
          "182436.300000",
          "182438.910000",
          "182441.522500",
          "182444.132500",
          "182446.742500",
          "182449.352500",
          "182451.962500",
          "182454.572500",
          "182457.185000",
          "182459.795000",
          "182502.405000",
          "182505.015000",
          "182507.625000",
          "182510.237500",
          "182512.847500",
          "182515.457500",
          "182518.067500",
          "182520.677500",
          "182523.287500",
          "182525.900000",
          "182528.510000",
          "182531.120000",
          "182533.730000",
          "182536.340000",
          "182538.950000",
          "182541.562500",
          "182544.172500",
          "182546.782500",
          "182549.392500",
          "182552.002500",
          "182554.615000",
          "182557.225000",
          "182559.835000",
          "182602.445000",
          "182605.055000"
        ],
        "ContentTime": [
          "181945.312000",
          "181945.812000",
          "181946.312000",
          "181948.812000",
          "181951.312000",
          "181953.812000",
          "181956.296000",
          "181959.296000",
          "182001.796000",
          "182004.312000",
          "182006.812000",
          "182009.296000",
          "182012.312000",
          "182014.812000",
          "182017.296000",
          "182019.796000",
          "182022.296000",
          "182025.296000",
          "182027.796000",
          "182030.312000",
          "182032.812000",
          "182035.296000",
          "182038.312000",
          "182040.812000",
          "182043.312000",
          "182045.812000",
          "182048.296000",
          "182051.312000",
          "182053.812000",
          "182056.312000",
          "182058.812000",
          "182101.796000",
          "182104.312000",
          "182106.812000",
          "182109.312000",
          "182111.812000",
          "182114.312000",
          "182117.296000",
          "182119.796000",
          "182122.296000",
          "182124.812000",
          "182127.312000",
          "182130.312000",
          "182132.812000",
          "182135.312000",
          "182137.812000",
          "182140.312000",
          "182143.312000",
          "182145.812000",
          "182148.312000",
          "182150.796000",
          "182153.312000",
          "182156.296000",
          "182158.812000",
          "182201.312000",
          "182203.812000",
          "182206.312000",
          "182209.312000",
          "182211.812000",
          "182214.312000",
          "182216.796000",
          "182219.296000",
          "182222.312000",
          "182224.796000",
          "182227.312000",
          "182229.796000",
          "182232.312000",
          "182235.296000",
          "182237.812000",
          "182240.296000",
          "182242.812000",
          "182245.296000",
          "182248.296000",
          "182250.812000",
          "182253.312000",
          "182255.812000",
          "182258.812000",
          "182301.296000",
          "182303.812000",
          "182306.312000",
          "182308.812000",
          "182311.296000",
          "182314.296000",
          "182316.796000",
          "182319.312000",
          "182321.812000",
          "182324.312000",
          "182327.312000",
          "182329.812000",
          "182332.312000",
          "182334.812000",
          "182337.796000",
          "182340.312000",
          "182342.812000",
          "182345.312000",
          "182347.812000",
          "182350.312000",
          "182353.312000",
          "182355.812000",
          "182358.312000",
          "182400.812000",
          "182403.812000",
          "182406.296000",
          "182408.796000",
          "182411.296000",
          "182413.812000",
          "182416.312000",
          "182419.312000",
          "182421.812000",
          "182424.312000",
          "182426.812000",
          "182429.312000",
          "182432.312000",
          "182434.796000",
          "182437.312000",
          "182439.796000",
          "182442.312000",
          "182445.312000",
          "182447.812000",
          "182450.312000",
          "182452.812000",
          "182455.312000",
          "182458.312000",
          "182500.812000",
          "182503.296000",
          "182505.796000",
          "182508.296000",
          "182511.296000",
          "182513.796000",
          "182516.296000",
          "182518.812000",
          "182521.312000",
          "182524.312000",
          "182526.812000",
          "182529.312000",
          "182531.812000",
          "182534.296000",
          "182537.312000",
          "182539.812000",
          "182542.296000",
          "182544.796000",
          "182547.296000",
          "182550.312000",
          "182552.812000",
          "182555.296000",
          "182557.796000",
          "182600.296000",
          "182603.296000",
          "182605.796000",
          "182613.078000"
        ],
        "InstanceCreationTime": [
          "181945.312000",
          "181945.812000",
          "181946.312000",
          "181948.812000",
          "181951.312000",
          "181953.812000",
          "181956.296000",
          "181959.296000",
          "182001.796000",
          "182004.312000",
          "182006.812000",
          "182009.296000",
          "182012.312000",
          "182014.812000",
          "182017.296000",
          "182019.796000",
          "182022.296000",
          "182025.296000",
          "182027.796000",
          "182030.312000",
          "182032.812000",
          "182035.296000",
          "182038.312000",
          "182040.812000",
          "182043.312000",
          "182045.812000",
          "182048.296000",
          "182051.312000",
          "182053.812000",
          "182056.312000",
          "182058.812000",
          "182101.796000",
          "182104.312000",
          "182106.812000",
          "182109.312000",
          "182111.812000",
          "182114.312000",
          "182117.296000",
          "182119.796000",
          "182122.296000",
          "182124.812000",
          "182127.312000",
          "182130.312000",
          "182132.812000",
          "182135.312000",
          "182137.812000",
          "182140.312000",
          "182143.312000",
          "182145.812000",
          "182148.312000",
          "182150.796000",
          "182153.312000",
          "182156.296000",
          "182158.812000",
          "182201.312000",
          "182203.812000",
          "182206.312000",
          "182209.312000",
          "182211.812000",
          "182214.312000",
          "182216.796000",
          "182219.296000",
          "182222.312000",
          "182224.796000",
          "182227.312000",
          "182229.796000",
          "182232.312000",
          "182235.296000",
          "182237.812000",
          "182240.296000",
          "182242.812000",
          "182245.296000",
          "182248.296000",
          "182250.812000",
          "182253.312000",
          "182255.812000",
          "182258.812000",
          "182301.296000",
          "182303.812000",
          "182306.312000",
          "182308.812000",
          "182311.296000",
          "182314.296000",
          "182316.796000",
          "182319.312000",
          "182321.812000",
          "182324.312000",
          "182327.312000",
          "182329.812000",
          "182332.312000",
          "182334.812000",
          "182337.796000",
          "182340.312000",
          "182342.812000",
          "182345.312000",
          "182347.812000",
          "182350.312000",
          "182353.312000",
          "182355.812000",
          "182358.312000",
          "182400.812000",
          "182403.812000",
          "182406.296000",
          "182408.796000",
          "182411.296000",
          "182413.812000",
          "182416.312000",
          "182419.312000",
          "182421.812000",
          "182424.312000",
          "182426.812000",
          "182429.312000",
          "182432.312000",
          "182434.796000",
          "182437.312000",
          "182439.796000",
          "182442.312000",
          "182445.312000",
          "182447.812000",
          "182450.312000",
          "182452.812000",
          "182455.312000",
          "182458.312000",
          "182500.812000",
          "182503.296000",
          "182505.796000",
          "182508.296000",
          "182511.296000",
          "182513.796000",
          "182516.296000",
          "182518.812000",
          "182521.312000",
          "182524.312000",
          "182526.812000",
          "182529.312000",
          "182531.812000",
          "182534.296000",
          "182537.312000",
          "182539.812000",
          "182542.296000",
          "182544.796000",
          "182547.296000",
          "182550.312000",
          "182552.812000",
          "182555.296000",
          "182557.796000",
          "182600.296000",
          "182603.296000",
          "182605.796000",
          "182613.078000"
        ],
        "InstanceNumber": [
          1,
          2,
          3,
          4,
          5,
          6,
          7,
          8,
          9,
          10,
          11,
          12,
          13,
          14,
          15,
          16,
          17,
          18,
          19,
          20,
          21,
          22,
          23,
          24,
          25,
          26,
          27,
          28,
          29,
          30,
          31,
          32,
          33,
          34,
          35,
          36,
          37,
          38,
          39,
          40,
          41,
          42,
          43,
          44,
          45,
          46,
          47,
          48,
          49,
          50,
          51,
          52,
          53,
          54,
          55,
          56,
          57,
          58,
          59,
          60,
          61,
          62,
          63,
          64,
          65,
          66,
          67,
          68,
          69,
          70,
          71,
          72,
          73,
          74,
          75,
          76,
          77,
          78,
          79,
          80,
          81,
          82,
          83,
          84,
          85,
          86,
          87,
          88,
          89,
          90,
          91,
          92,
          93,
          94,
          95,
          96,
          97,
          98,
          99,
          100,
          101,
          102,
          103,
          104,
          105,
          106,
          107,
          108,
          109,
          110,
          111,
          112,
          113,
          114,
          115,
          116,
          117,
          118,
          119,
          120,
          121,
          122,
          123,
          124,
          125,
          126,
          127,
          128,
          129,
          130,
          131,
          132,
          133,
          134,
          135,
          136,
          137,
          138,
          139,
          140,
          141,
          142,
          143,
          144,
          145,
          146,
          147,
          148,
          149,
          150
        ],
        "WindowCenter": [
          877.0,
          875.0,
          875.0,
          875.0,
          875.0,
          875.0,
          875.0,
          874.0,
          874.0,
          875.0,
          874.0,
          874.0,
          875.0,
          875.0,
          875.0,
          875.0,
          875.0,
          874.0,
          874.0,
          875.0,
          875.0,
          874.0,
          875.0,
          875.0,
          874.0,
          875.0,
          875.0,
          874.0,
          875.0,
          875.0,
          874.0,
          874.0,
          874.0,
          875.0,
          875.0,
          875.0,
          874.0,
          875.0,
          874.0,
          874.0,
          875.0,
          875.0,
          875.0,
          875.0,
          875.0,
          875.0,
          875.0,
          875.0,
          875.0,
          875.0,
          874.0,
          875.0,
          874.0,
          874.0,
          876.0,
          875.0,
          875.0,
          876.0,
          875.0,
          876.0,
          875.0,
          875.0,
          874.0,
          875.0,
          875.0,
          875.0,
          876.0,
          875.0,
          875.0,
          876.0,
          876.0,
          875.0,
          875.0,
          876.0,
          876.0,
          875.0,
          875.0,
          875.0,
          875.0,
          875.0,
          875.0,
          875.0,
          875.0,
          876.0,
          876.0,
          875.0,
          876.0,
          876.0,
          874.0,
          876.0,
          876.0,
          875.0,
          876.0,
          876.0,
          875.0,
          874.0,
          875.0,
          875.0,
          875.0,
          876.0,
          875.0,
          875.0,
          875.0,
          875.0,
          875.0,
          875.0,
          874.0,
          875.0,
          875.0,
          875.0,
          876.0,
          875.0,
          876.0,
          875.0,
          875.0,
          875.0,
          875.0,
          875.0,
          875.0,
          875.0,
          874.0,
          875.0,
          875.0,
          875.0,
          876.0,
          875.0,
          875.0,
          875.0,
          874.0,
          875.0,
          875.0,
          875.0,
          874.0,
          874.0,
          875.0,
          875.0,
          875.0,
          875.0,
          875.0,
          876.0,
          875.0,
          874.0,
          874.0,
          874.0,
          875.0,
          874.0,
          875.0,
          876.0,
          876.0,
          877.0
        ],
        "WindowWidth": [
          2037.0,
          2031.0,
          2030.0,
          2031.0,
          2030.0,
          2032.0,
          2031.0,
          2027.0,
          2027.0,
          2030.0,
          2027.0,
          2028.0,
          2032.0,
          2030.0,
          2030.0,
          2031.0,
          2030.0,
          2027.0,
          2028.0,
          2030.0,
          2028.0,
          2027.0,
          2030.0,
          2029.0,
          2027.0,
          2029.0,
          2029.0,
          2028.0,
          2031.0,
          2030.0,
          2026.0,
          2029.0,
          2027.0,
          2028.0,
          2031.0,
          2029.0,
          2025.0,
          2029.0,
          2028.0,
          2028.0,
          2030.0,
          2032.0,
          2031.0,
          2031.0,
          2031.0,
          2030.0,
          2031.0,
          2031.0,
          2031.0,
          2028.0,
          2028.0,
          2031.0,
          2027.0,
          2028.0,
          2033.0,
          2028.0,
          2028.0,
          2032.0,
          2030.0,
          2033.0,
          2029.0,
          2029.0,
          2028.0,
          2027.0,
          2029.0,
          2030.0,
          2033.0,
          2031.0,
          2030.0,
          2034.0,
          2032.0,
          2029.0,
          2032.0,
          2033.0,
          2033.0,
          2029.0,
          2029.0,
          2030.0,
          2029.0,
          2031.0,
          2030.0,
          2030.0,
          2029.0,
          2033.0,
          2032.0,
          2030.0,
          2036.0,
          2033.0,
          2027.0,
          2033.0,
          2032.0,
          2031.0,
          2033.0,
          2034.0,
          2029.0,
          2029.0,
          2031.0,
          2030.0,
          2030.0,
          2033.0,
          2029.0,
          2031.0,
          2032.0,
          2030.0,
          2030.0,
          2029.0,
          2027.0,
          2029.0,
          2028.0,
          2032.0,
          2033.0,
          2030.0,
          2032.0,
          2031.0,
          2030.0,
          2030.0,
          2029.0,
          2029.0,
          2029.0,
          2030.0,
          2028.0,
          2033.0,
          2030.0,
          2032.0,
          2032.0,
          2032.0,
          2030.0,
          2028.0,
          2027.0,
          2029.0,
          2031.0,
          2030.0,
          2028.0,
          2028.0,
          2030.0,
          2029.0,
          2030.0,
          2030.0,
          2031.0,
          2034.0,
          2029.0,
          2027.0,
          2026.0,
          2028.0,
          2029.0,
          2028.0,
          2032.0,
          2033.0,
          2034.0,
          2036.0
        ]
      },
      "slices": {}
    }
  },
  "dummy_trs": 1,
  "dvars_nstd": 74.86348507837837,
  "dvars_std": 1.0548445373648645,
  "dvars_vstd": 1.0082740781081079,
  "efc": 0.554249249139142,
  "fber": 341.10107421875,
  "fd_mean": 0.05182653001357728,
  "fd_num": 3,
  "fd_perc": 2.0134228187919465,
  "fwhm_avg": 2.9934584631885097,
  "fwhm_x": 2.8355053121873226,
  "fwhm_y": 2.8264156038492247,
  "fwhm_z": 3.318454473528982,
  "gcor": 0.000686862,
  "gsr_x": -0.0007605184800922871,
  "gsr_y": 0.036758940666913986,
  "provenance": {
    "md5sum": "9ce42868b6b8b74adcf4747815e169ae",
    "settings": {
      "fd_thres": 0.2,
      "testing": false
    },
    "software": "mriqc",
    "version": "23.0.1",
    "webapi_port": null,
    "webapi_url": "https://mriqc.nimh.nih.gov/api/v1"
  },
  "size_t": 149,
  "size_x": 188,
  "size_y": 188,
  "size_z": 46,
  "snr": 2.0192121865123296,
  "spacing_tr": 2.5999999046325684,
  "spacing_x": 1.0957447290420532,
  "spacing_y": 1.0957447290420532,
  "spacing_z": 1.100000023841858,
  "summary_bg_k": 77.60540428366622,
  "summary_bg_mad": 23.47287612727421,
  "summary_bg_mean": 84.07456970214844,
  "summary_bg_median": 50.14765167236328,
  "summary_bg_n": 1056601.0,
  "summary_bg_p05": 31.42953109741211,
  "summary_bg_p95": 244.8053741455078,
