{
  "aor": 0.000644228187919463,
  "aqi": 0.012147659060402684,
  "bids_meta": {
    "AcquisitionMatrixPE": 188,
    "AcquisitionNumber": 1,
    "AcquisitionTime": "17:07:35.100000",
    "BandwidthPerPixelPhaseEncode": 19.46,
    "BaseResolution": 188,
    "CogAtlasID": "TODO",
    "ConversionSoftware": "dcm2niix",
    "ConversionSoftwareVersion": "v1.0.20180606 GCC4.8.5",
    "DelayTime": 1.2,
    "DerivedVendorReportedEchoSpacing": 0.000820013,
    "DeviceSerialNumber": "18930",
    "DwellTime": 1.9e-06,
    "EchoTime": 0.02,
    "EffectiveEchoSpacing": 0.000273338,
    "FlipAngle": 80,
    "ImageComments": "Unaliased_MB2_PE2",
    "ImageOrientationPatientDICOM": [
      0.997424,
      0.0677674,
      -0.0235157,
      -0.0335272,
      0.150615,
      -0.988024
    ],
    "ImageType": [
      "ORIGINAL",
      "PRIMARY",
      "M",
      "MB",
      "ND",
      "MOSAIC"
    ],
    "InPlanePhaseEncodingDirectionDICOM": "COL",
    "InstitutionAddress": "Oxfordlaan_55_Maastricht_753AAF_Limburg_NL_6229_EV",
    "InstitutionName": "Scannexus",
    "InstitutionalDepartmentName": "MRI_7T",
    "MRAcquisitionType": "2D",
    "MagneticFieldStrength": 6.98,
    "Manufacturer": "Siemens",
    "ManufacturersModelName": "Investigational_Device_7T",
    "Modality": "MR",
    "MultibandAccelerationFactor": 2,
    "ParallelReductionFactorInPlane": 3,
    "PartialFourier": 0.75,
    "PatientPosition": "HFS",
    "PercentPhaseFOV": 100,
    "PhaseEncodingDirection": "j",
    "PhaseEncodingSteps": 141,
    "PhaseResolution": 1,
    "PixelBandwidth": 1400,
    "ProcedureStepDescription": "FeDem_Faruk",
    "ProtocolName": "cmrr_mbep2d_bold_AP_run1",
    "PulseSequenceDetails": "%CustomerSeq%_cmrr_mbep2d_bold",
    "ReceiveCoilName": "32Ch_Head_7T",
    "ReconMatrixPE": 188,
    "RepetitionTime": 2.6,
    "SAR": 0.0614183,
    "ScanOptions": "PFP_FS",
    "ScanningSequence": "EP",
    "SequenceName": "epfid2d1_188",
    "SequenceVariant": "SK_SS",
    "SeriesDescription": "cmrr_mbep2d_bold_AP_run1",
    "SeriesNumber": 12,
    "ShimSetting": [
      123,
      -79,
      487,
      312,
      -62,
      576,
      7,
      43
    ],
    "SliceThickness": 1.1,
    "SliceTiming": [
      0,
      0.735,
      0.0625,
      0.795,
      0.1225,
      0.8575,
      0.185,
      0.9175,
      0.245,
      0.9775,
      0.3075,
      1.04,
      0.3675,
      1.1,
      0.4275,
      1.1625,
      0.49,
      1.2225,
      0.55,
      1.285,
      0.6125,
      1.345,
      0.6725,
      0,
      0.735,
      0.0625,
      0.795,
      0.1225,
      0.8575,
      0.185,
      0.9175,
      0.245,
      0.9775,
      0.3075,
      1.04,
      0.3675,
      1.1,
      0.4275,
      1.1625,
      0.49,
      1.2225,
      0.55,
      1.285,
      0.6125,
      1.345,
      0.6725
    ],
    "SoftwareVersions": "syngo_MR_B17",
    "SpacingBetweenSlices": 1.1,
    "StationName": "MRC18930",
    "TaskName": "auditory",
    "TotalReadoutTime": 0.0511141,
    "TxRefAmp": 210,
    "dataset": "ds001942",
    "dcmmeta_affine": [
      [
        -1.0929220914840698,
        -0.036737244576215744,
        0.06975541263818741,
        99.55953979492188
      ],
      [
        -0.07425578683614731,
        0.1650356501340866,
        -1.084893822669983,
        39.54338836669922
      ],
      [
        -0.025767162442207336,
        1.0826219320297241,
        0.16774903237819672,
        -115.55513000488281
      ],
      [
        0.0,
        0.0,
        0.0,
        1.0
      ]
    ],
    "dcmmeta_reorient_transform": [
      [
        0.0,
        -1.0,
        0.0,
        187.0
      ],
      [
        1.0,
        0.0,
        0.0,
        0.0
      ],
      [
        0.0,
        0.0,
        1.0,
        0.0
      ],
      [
        0.0,
        0.0,
        0.0,
        1.0
      ]
    ],
    "dcmmeta_shape": [
      188,
      188,
      46,
      150
    ],
    "dcmmeta_slice_dim": 2,
    "dcmmeta_version": 0.6,
    "global": {
      "const": {
        "AcquisitionMatrix": [
          188,
          0,
          0,
          188
        ],
        "AngioFlag": "N",
        "BitsAllocated": 16,
        "BitsStored": 12,
        "Columns": 1316,
        "EchoNumbers": 1,
        "EchoTime": 20.0,
        "EchoTrainLength": 1,
        "FlipAngle": 80.0,
        "HighBit": 11,
        "ImageOrientationPatient": [
          0.99742397753531,
          0.06776741630499,
          -0.0235156612705,
          -0.0335271930401,
          0.15061505590442,
          -0.9880238014652
        ],
        "ImagePositionPatient": [
          -688.37791353932,
          -205.36542862854,
          712.02657917517
        ],
        "ImageType": [
          "ORIGINAL",
          "PRIMARY",
          "M",
          "MB",
          "ND",
          "MOSAIC"
        ],
        "ImagedNucleus": "1H",
        "ImagingFrequency": 297.205617,
        "InPlanePhaseEncodingDirection": "COL",
        "LargestImagePixelValue": 4095,
        "MRAcquisitionType": "2D",
        "MagneticFieldStrength": 6.98,
        "Manufacturer": "SIEMENS",
        "ManufacturerModelName": "Investigational_Device_7T",
        "Modality": "MR",
        "NumberOfAverages": 1.0,
        "NumberOfPhaseEncodingSteps": 141,
        "PercentPhaseFieldOfView": 100.0,
        "PercentSampling": 100.0,
        "PerformedProcedureStepStartTime": "164025.968000",
        "PhotometricInterpretation": "MONOCHROME2",
        "PixelBandwidth": 1400.0,
        "PixelRepresentation": 0,
        "PixelSpacing": [
          1.0957447290421,
          1.0957447290421
        ],
        "ProtocolName": "cmrr_mbep2d_bold_AP_run1",
        "RepetitionTime": 2600.0,
        "Rows": 1316,
        "SAR": 0.06141827403469,
        "SamplesPerPixel": 1,
        "ScanOptions": [
          "PFP",
          "FS"
        ],
        "ScanningSequence": "EP",
        "SequenceName": "epfid2d1_188",
        "SequenceVariant": [
          "SK",
          "SS"
        ],
        "SeriesDescription": "cmrr_mbep2d_bold_AP_run1",
        "SeriesNumber": 12,
        "SeriesTime": "170743.906000",
        "SliceLocation": -50.308925679162,
        "SliceThickness": 1.1000000238419,
        "SmallestImagePixelValue": 0,
        "SoftwareVersions": "syngo MR B17",
        "SpacingBetweenSlices": 1.1000000256964,
        "SpecificCharacterSet": "ISO_IR 100",
        "StudyID": "1",
        "StudyTime": "164025.859000",
        "TransmitCoilName": "32Ch_Head_7T",
        "VariableFlipAngleFlag": "N",
        "WindowCenterWidthExplanation": "Algo1",
        "dBdt": 0.0
      },
      "slices": {}
    },
    "modality": "bold",
    "run_id": 1,
    "session_id": "SES03",
    "subject_id": "S01",
    "task_id": "auditory",
    "time": {
      "samples": {
        "AcquisitionNumber": [
          1,
          2,
          3,
          4,
          5,
          6,
          7,
          8,
          9,
          10,
          11,
          12,
          13,
          14,
          15,
          16,
          17,
          18,
          19,
          20,
          21,
          22,
          23,
          24,
          25,
          26,
          27,
          28,
          29,
          30,
          31,
          32,
          33,
          34,
          35,
          36,
          37,
          38,
          39,
          40,
          41,
          42,
          43,
          44,
          45,
          46,
          47,
          48,
          49,
          50,
          51,
          52,
          53,
          54,
          55,
          56,
          57,
          58,
          59,
          60,
          61,
          62,
          63,
          64,
          65,
          66,
          67,
          68,
          69,
          70,
          71,
          72,
          73,
          74,
          75,
          76,
          77,
          78,
          79,
          80,
          81,
          82,
          83,
          84,
          85,
          86,
          87,
          88,
          89,
          90,
          91,
          92,
          93,
          94,
          95,
          96,
          97,
          98,
          99,
          100,
          101,
          102,
          103,
          104,
          105,
          106,
          107,
          108,
          109,
          110,
          111,
          112,
          113,
          114,
          115,
          116,
          117,
          118,
          119,
          120,
          121,
          122,
          123,
          124,
          125,
          126,
          127,
          128,
          129,
          130,
          131,
          132,
          133,
          134,
          135,
          136,
          137,
          138,
          139,
          140,
          141,
          142,
          143,
          144,
          145,
          146,
          147,
          148,
          149,
          150
        ],
        "AcquisitionTime": [
          "170735.100000",
          "170737.712500",
          "170740.322500",
          "170742.932500",
          "170745.542500",
          "170748.152500",
          "170750.762500",
          "170753.375000",
          "170755.985000",
          "170758.595000",
          "170801.205000",
          "170803.815000",
          "170806.427500",
          "170809.037500",
          "170811.647500",
          "170814.257500",
          "170816.867500",
          "170819.477500",
          "170822.090000",
          "170824.700000",
          "170827.310000",
          "170829.920000",
          "170832.530000",
          "170835.140000",
          "170837.752500",
          "170840.362500",
          "170842.972500",
          "170845.582500",
          "170848.192500",
          "170850.805000",
          "170853.415000",
          "170856.025000",
          "170858.635000",
          "170901.245000",
          "170903.855000",
          "170906.467500",
          "170909.077500",
          "170911.687500",
          "170914.297500",
          "170916.907500",
          "170919.517500",
          "170922.130000",
          "170924.740000",
          "170927.350000",
          "170929.960000",
          "170932.570000",
          "170935.182500",
          "170937.792500",
          "170940.402500",
          "170943.012500",
          "170945.622500",
          "170948.232500",
          "170950.845000",
          "170953.455000",
          "170956.065000",
          "170958.675000",
          "171001.285000",
          "171003.895000",
          "171006.507500",
          "171009.117500",
          "171011.727500",
          "171014.337500",
          "171016.947500",
          "171019.560000",
          "171022.170000",
          "171024.780000",
          "171027.390000",
          "171030.000000",
          "171032.610000",
          "171035.222500",
          "171037.832500",
          "171040.442500",
          "171043.052500",
          "171045.662500",
          "171048.272500",
          "171050.885000",
          "171053.495000",
          "171056.105000",
          "171058.715000",
          "171101.325000",
          "171103.937500",
          "171106.547500",
          "171109.157500",
          "171111.767500",
          "171114.377500",
          "171116.987500",
          "171119.600000",
          "171122.210000",
          "171124.820000",
          "171127.430000",
          "171130.040000",
          "171132.650000",
          "171135.262500",
          "171137.872500",
          "171140.482500",
          "171143.092500",
          "171145.702500",
          "171148.315000",
          "171150.925000",
          "171153.535000",
          "171156.145000",
          "171158.755000",
          "171201.365000",
          "171203.977500",
          "171206.587500",
          "171209.197500",
          "171211.807500",
          "171214.417500",
          "171217.027500",
          "171219.640000",
          "171222.250000",
          "171224.860000",
          "171227.470000",
          "171230.080000",
          "171232.692500",
          "171235.302500",
          "171237.912500",
          "171240.522500",
          "171243.132500",
          "171245.742500",
          "171248.355000",
          "171250.965000",
          "171253.575000",
          "171256.185000",
          "171258.795000",
          "171301.405000",
          "171304.017500",
          "171306.627500",
          "171309.237500",
          "171311.847500",
          "171314.457500",
          "171317.070000",
          "171319.680000",
          "171322.290000",
          "171324.900000",
          "171327.510000",
          "171330.120000",
          "171332.732500",
          "171335.342500",
          "171337.952500",
          "171340.562500",
          "171343.172500",
          "171345.782500",
          "171348.395000",
          "171351.005000",
          "171353.615000",
          "171356.225000",
          "171358.835000",
          "171401.447500",
          "171404.057500"
        ],
        "ContentTime": [
          "170743.906000",
          "170743.921000",
          "170744.406000",
          "170746.906000",
          "170749.406000",
          "170751.906000",
          "170754.906000",
          "170757.406000",
          "170759.906000",
          "170802.406000",
          "170804.906000",
          "170807.906000",
          "170810.406000",
          "170812.906000",
          "170815.406000",
          "170817.906000",
          "170820.406000",
          "170823.406000",
          "170825.906000",
          "170828.406000",
          "170830.906000",
          "170833.406000",
          "170836.406000",
          "170838.906000",
          "170841.406000",
          "170843.906000",
          "170846.906000",
          "170849.406000",
          "170851.906000",
          "170854.406000",
          "170856.906000",
          "170859.906000",
          "170902.406000",
          "170904.906000",
          "170907.406000",
          "170909.906000",
          "170912.906000",
          "170915.406000",
          "170917.906000",
          "170920.406000",
          "170922.906000",
          "170925.406000",
          "170928.406000",
          "170930.906000",
          "170933.406000",
          "170935.906000",
          "170938.906000",
          "170941.406000",
          "170943.921000",
          "170946.406000",
          "170948.906000",
          "170951.906000",
          "170954.406000",
          "170956.906000",
          "170959.406000",
          "171001.906000",
          "171004.906000",
          "171007.406000",
          "171009.906000",
          "171012.406000",
          "171014.906000",
          "171017.406000",
          "171020.406000",
          "171022.906000",
          "171025.406000",
          "171027.906000",
          "171030.906000",
          "171033.406000",
          "171035.906000",
          "171038.406000",
          "171040.906000",
          "171043.906000",
          "171046.406000",
          "171048.906000",
          "171051.406000",
          "171053.906000",
          "171056.906000",
          "171059.406000",
          "171101.906000",
          "171104.406000",
          "171106.906000",
          "171109.406000",
          "171112.406000",
          "171114.906000",
          "171117.406000",
          "171119.906000",
          "171122.906000",
          "171125.406000",
          "171127.906000",
          "171130.406000",
          "171132.906000",
          "171135.906000",
          "171138.406000",
          "171140.906000",
          "171143.406000",
          "171145.906000",
          "171148.906000",
          "171151.406000",
          "171153.906000",
          "171156.406000",
          "171158.906000",
          "171201.406000",
          "171204.406000",
          "171206.906000",
          "171209.406000",
          "171211.906000",
          "171214.906000",
          "171217.406000",
          "171219.906000",
          "171222.406000",
          "171224.906000",
          "171227.906000",
          "171230.406000",
          "171232.906000",
          "171235.406000",
          "171237.906000",
          "171240.906000",
          "171243.406000",
          "171245.906000",
          "171248.406000",
          "171250.906000",
          "171253.406000",
          "171256.406000",
          "171258.906000",
          "171301.406000",
          "171303.906000",
          "171306.906000",
          "171309.406000",
          "171311.906000",
          "171314.406000",
          "171316.906000",
          "171319.906000",
          "171322.406000",
          "171324.906000",
          "171327.406000",
          "171329.906000",
          "171332.406000",
          "171335.406000",
          "171337.906000",
          "171340.406000",
          "171342.906000",
          "171345.406000",
          "171348.406000",
          "171350.906000",
          "171353.406000",
          "171355.906000",
          "171358.906000",
          "171401.406000",
          "171403.906000",
          "171411.203000"
        ],
        "InstanceCreationTime": [
          "170743.906000",
          "170743.921000",
          "170744.406000",
          "170746.906000",
          "170749.406000",
          "170751.906000",
          "170754.906000",
          "170757.406000",
          "170759.906000",
          "170802.406000",
          "170804.906000",
          "170807.906000",
          "170810.406000",
          "170812.906000",
          "170815.406000",
          "170817.906000",
          "170820.406000",
          "170823.406000",
          "170825.906000",
          "170828.406000",
          "170830.906000",
          "170833.406000",
          "170836.406000",
          "170838.906000",
          "170841.406000",
          "170843.906000",
          "170846.906000",
          "170849.406000",
          "170851.906000",
          "170854.406000",
          "170856.906000",
          "170859.906000",
          "170902.406000",
          "170904.906000",
          "170907.406000",
          "170909.906000",
          "170912.906000",
          "170915.406000",
          "170917.906000",
          "170920.406000",
          "170922.906000",
          "170925.406000",
          "170928.406000",
          "170930.906000",
          "170933.406000",
          "170935.906000",
          "170938.906000",
          "170941.406000",
          "170943.921000",
          "170946.406000",
          "170948.906000",
          "170951.906000",
          "170954.406000",
          "170956.906000",
          "170959.406000",
          "171001.906000",
          "171004.906000",
          "171007.406000",
          "171009.906000",
          "171012.406000",
          "171014.906000",
          "171017.406000",
          "171020.406000",
          "171022.906000",
          "171025.406000",
          "171027.906000",
          "171030.906000",
          "171033.406000",
          "171035.906000",
          "171038.406000",
          "171040.906000",
          "171043.906000",
          "171046.406000",
          "171048.906000",
          "171051.406000",
          "171053.906000",
          "171056.906000",
          "171059.406000",
          "171101.906000",
          "171104.406000",
          "171106.906000",
          "171109.406000",
          "171112.406000",
          "171114.906000",
          "171117.406000",
          "171119.906000",
          "171122.906000",
          "171125.406000",
          "171127.906000",
          "171130.406000",
          "171132.906000",
          "171135.906000",
          "171138.406000",
          "171140.906000",
          "171143.406000",
          "171145.906000",
          "171148.906000",
          "171151.406000",
          "171153.906000",
          "171156.406000",
          "171158.906000",
          "171201.406000",
          "171204.406000",
          "171206.906000",
          "171209.406000",
          "171211.906000",
          "171214.906000",
          "171217.406000",
          "171219.906000",
          "171222.406000",
          "171224.906000",
          "171227.906000",
          "171230.406000",
          "171232.906000",
          "171235.406000",
          "171237.906000",
          "171240.906000",
          "171243.406000",
          "171245.906000",
          "171248.406000",
          "171250.906000",
          "171253.406000",
          "171256.406000",
          "171258.906000",
          "171301.406000",
          "171303.906000",
          "171306.906000",
          "171309.406000",
          "171311.906000",
          "171314.406000",
          "171316.906000",
          "171319.906000",
          "171322.406000",
          "171324.906000",
          "171327.406000",
          "171329.906000",
          "171332.406000",
          "171335.406000",
          "171337.906000",
          "171340.406000",
          "171342.906000",
          "171345.406000",
          "171348.406000",
          "171350.906000",
          "171353.406000",
          "171355.906000",
          "171358.906000",
          "171401.406000",
          "171403.906000",
          "171411.203000"
        ],
        "InstanceNumber": [
          1,
          2,
          3,
          4,
          5,
          6,
          7,
          8,
          9,
          10,
          11,
          12,
          13,
          14,
          15,
          16,
          17,
          18,
          19,
          20,
          21,
          22,
          23,
          24,
          25,
          26,
          27,
          28,
          29,
          30,
          31,
          32,
          33,
          34,
          35,
          36,
          37,
          38,
          39,
          40,
          41,
          42,
          43,
          44,
          45,
          46,
          47,
          48,
          49,
          50,
          51,
          52,
          53,
          54,
          55,
          56,
          57,
          58,
          59,
          60,
          61,
          62,
          63,
          64,
          65,
          66,
          67,
          68,
          69,
          70,
          71,
          72,
          73,
          74,
          75,
          76,
          77,
          78,
          79,
          80,
          81,
          82,
          83,
          84,
          85,
          86,
          87,
          88,
          89,
          90,
          91,
          92,
          93,
          94,
          95,
          96,
          97,
          98,
          99,
          100,
          101,
          102,
          103,
          104,
          105,
          106,
          107,
          108,
          109,
          110,
          111,
          112,
          113,
          114,
          115,
          116,
          117,
          118,
          119,
          120,
          121,
          122,
          123,
          124,
          125,
          126,
          127,
          128,
          129,
          130,
          131,
          132,
          133,
          134,
          135,
          136,
          137,
          138,
          139,
          140,
          141,
          142,
          143,
          144,
          145,
          146,
          147,
          148,
          149,
          150
        ],
        "WindowCenter": [
          872.0,
          871.0,
          870.0,
          869.0,
          869.0,
          870.0,
          870.0,
          870.0,
          870.0,
          870.0,
          869.0,
          870.0,
          870.0,
          870.0,
          870.0,
          869.0,
          869.0,
          870.0,
          869.0,
          870.0,
          870.0,
          870.0,
          870.0,
          870.0,
          870.0,
          870.0,
          871.0,
          870.0,
          869.0,
          870.0,
          869.0,
          870.0,
          870.0,
          869.0,
          869.0,
          869.0,
          870.0,
          870.0,
          869.0,
          870.0,
          870.0,
          869.0,
          869.0,
          869.0,
          870.0,
          870.0,
          869.0,
          869.0,
          870.0,
          870.0,
          869.0,
          870.0,
          870.0,
          869.0,
          870.0,
          870.0,
          870.0,
          870.0,
          871.0,
          870.0,
          870.0,
          870.0,
          870.0,
          870.0,
          870.0,
          870.0,
          870.0,
          870.0,
          870.0,
          870.0,
          870.0,
          870.0,
          870.0,
          870.0,
          870.0,
          870.0,
          871.0,
          870.0,
          870.0,
          870.0,
          870.0,
          870.0,
          870.0,
          870.0,
          870.0,
          869.0,
          870.0,
          870.0,
          869.0,
          870.0,
          870.0,
          870.0,
          870.0,
          870.0,
          871.0,
          870.0,
          870.0,
          871.0,
          870.0,
          870.0,
          871.0,
          871.0,
          871.0,
          870.0,
          870.0,
          871.0,
          871.0,
          871.0,
          871.0,
          871.0,
          870.0,
          872.0,
          871.0,
          870.0,
          871.0,
          871.0,
          871.0,
          870.0,
          870.0,
          871.0,
          871.0,
          870.0,
          870.0,
          870.0,
          871.0,
          870.0,
          869.0,
          871.0,
          870.0,
          870.0,
          871.0,
          871.0,
          870.0,
          871.0,
          870.0,
          870.0,
          870.0,
          871.0,
          871.0,
          871.0,
          871.0,
          870.0,
          872.0,
          871.0,
          870.0,
          870.0,
          871.0,
          870.0,
          870.0,
          870.0
        ],
        "WindowWidth": [
          2026.0,
          2022.0,
          2020.0,
          2014.0,
          2014.0,
          2017.0,
          2016.0,
          2017.0,
          2019.0,
          2017.0,
          2016.0,
          2016.0,
          2017.0,
          2017.0,
          2017.0,
          2014.0,
          2014.0,
          2017.0,
          2016.0,
          2019.0,
          2018.0,
          2017.0,
          2017.0,
          2018.0,
          2019.0,
          2018.0,
          2021.0,
          2016.0,
          2016.0,
          2019.0,
          2015.0,
          2018.0,
          2021.0,
          2015.0,
          2014.0,
          2016.0,
          2017.0,
          2017.0,
          2015.0,
          2020.0,
          2019.0,
          2014.0,
          2016.0,
          2016.0,
          2017.0,
          2019.0,
          2016.0,
          2014.0,
          2020.0,
          2019.0,
          2014.0,
          2018.0,
          2021.0,
          2015.0,
          2017.0,
          2019.0,
          2017.0,
          2018.0,
          2021.0,
          2018.0,
          2017.0,
          2019.0,
          2021.0,
          2018.0,
          2019.0,
          2019.0,
          2019.0,
          2019.0,
          2018.0,
          2018.0,
          2018.0,
          2018.0,
          2019.0,
          2016.0,
          2017.0,
          2020.0,
          2020.0,
          2018.0,
          2017.0,
          2018.0,
          2019.0,
          2018.0,
          2019.0,
          2017.0,
          2017.0,
          2015.0,
          2018.0,
          2017.0,
          2016.0,
          2019.0,
          2017.0,
          2019.0,
          2018.0,
          2016.0,
          2022.0,
          2017.0,
          2016.0,
          2020.0,
          2018.0,
          2019.0,
          2021.0,
          2021.0,
          2022.0,
          2016.0,
          2018.0,
          2023.0,
          2021.0,
          2020.0,
          2025.0,
          2021.0,
          2019.0,
          2024.0,
          2023.0,
          2019.0,
          2020.0,
          2023.0,
          2022.0,
          2019.0,
          2019.0,
          2021.0,
          2021.0,
          2019.0,
          2019.0,
          2018.0,
          2022.0,
          2019.0,
          2015.0,
          2020.0,
          2018.0,
          2017.0,
          2022.0,
          2021.0,
          2018.0,
          2021.0,
          2019.0,
          2019.0,
          2018.0,
          2021.0,
          2021.0,
          2021.0,
          2020.0,
          2019.0,
          2024.0,
          2020.0,
          2018.0,
          2019.0,
          2021.0,
          2019.0,
          2018.0,
          2018.0
        ]
      },
      "slices": {}
    }
  },
  "dummy_trs": 1,
  "dvars_nstd": 76.81163045540538,
  "dvars_std": 1.0767554522972973,
  "dvars_vstd": 1.0095777896621623,
  "efc": 0.5528095934065753,
  "fber": 357.505859375,
  "fd_mean": 0.034352195959056565,
  "fd_num": 0,
  "fd_perc": 0.0,
  "fwhm_avg": 2.969927072206419,
  "fwhm_x": 2.862491524592698,
  "fwhm_y": 2.7868352172404602,
  "fwhm_z": 3.2604544747860977,
  "gcor": 0.00101996,
  "gsr_x": 0.006665774155408144,
  "gsr_y": 0.03382387384772301,
  "provenance": {
    "md5sum": "ae061dfbe30b888baf7163e99ab3a07f",
    "settings": {
      "fd_thres": 0.2,
      "testing": false
    },
    "software": "mriqc",
    "version": "22.0.6",
    "webapi_port": null,
    "webapi_url": "https://mriqc.nimh.nih.gov/api/v1"
  },
  "size_t": 149,
  "size_x": 188,
  "size_y": 188,
  "size_z": 46,
  "snr": 2.073442376537338,
  "spacing_tr": 2.5999999046325684,
  "spacing_x": 1.0957447290420532,
  "spacing_y": 1.0957447290420532,
  "spacing_z": 1.100000023841858,
  "summary_bg_k": 76.6264554982325,
  "summary_bg_mad": 22.78629936443506,
  "summary_bg_mean": 84.2680435180664,
  "summary_bg_median": 49.0268440246582,
  "summary_bg_n": 1065097.0,
  "summary_bg_p05": 31.060401916503906,
  "summary_bg_p95": 237.57717895507812,
