{
  "aor": 0.0016168,
  "aqi": 0.018476376,
  "bids_meta": {
    "AcquisitionMatrixPE": 188,
    "AcquisitionNumber": 1,
    "AcquisitionTime": "18:36:11.017500",
    "BandwidthPerPixelPhaseEncode": 19.46,
    "BaseResolution": 188,
    "ConversionSoftware": "dcm2niix",
    "ConversionSoftwareVersion": "v1.0.20180606 GCC4.8.5",
    "DelayTime": 1.2,
    "DerivedVendorReportedEchoSpacing": 0.000820013,
    "DeviceSerialNumber": "18930",
    "DwellTime": 1.9e-06,
    "EchoTime": 0.02,
    "EffectiveEchoSpacing": 0.000273338,
    "FlipAngle": 80,
    "ImageComments": "Unaliased_MB2_PE2",
    "ImageOrientationPatientDICOM": [
      0.999248,
      0.020497,
      -0.0329253,
      -0.0374194,
      0.286299,
      -0.957409
    ],
    "ImageType": [
      "ORIGINAL",
      "PRIMARY",
      "M",
      "MB",
      "ND",
      "MOSAIC"
    ],
    "InPlanePhaseEncodingDirectionDICOM": "COL",
    "InstitutionAddress": "Oxfordlaan_55_Maastricht_753AAF_Limburg_NL_6229_EV",
    "InstitutionName": "Scannexus",
    "InstitutionalDepartmentName": "MRI_7T",
    "MRAcquisitionType": "2D",
    "MagneticFieldStrength": 6.98,
    "Manufacturer": "Siemens",
    "ManufacturersModelName": "Investigational_Device_7T",
    "Modality": "MR",
    "MultibandAccelerationFactor": 2,
    "ParallelReductionFactorInPlane": 3,
    "PartialFourier": 0.75,
    "PatientPosition": "HFS",
    "PercentPhaseFOV": 100,
    "PhaseEncodingDirection": "j",
    "PhaseEncodingSteps": 141,
    "PhaseResolution": 1,
    "PixelBandwidth": 1400,
    "ProcedureStepDescription": "FeDem_Faruk",
    "ProtocolName": "cmrr_mbep2d_bold_AP_run1",
    "PulseSequenceDetails": "%CustomerSeq%_cmrr_mbep2d_bold",
    "ReceiveCoilName": "32Ch_Head_7T",
    "ReconMatrixPE": 188,
    "RepetitionTime": 2.6,
    "SAR": 0.0589333,
    "ScanOptions": "PFP_FS",
    "ScanningSequence": "EP",
    "SequenceName": "epfid2d1_188",
    "SequenceVariant": "SK_SS",
    "SeriesDescription": "cmrr_mbep2d_bold_AP_run1",
    "SeriesNumber": 12,
    "ShimSetting": [
      117,
      -256,
      552,
      270,
      8,
      -144,
      276,
      73
    ],
    "SliceThickness": 1.1,
    "SliceTiming": [
      0,
      0.735,
      0.0625,
      0.795,
      0.1225,
      0.8575,
      0.185,
      0.9175,
      0.245,
      0.98,
      0.3075,
      1.04,
      0.3675,
      1.1,
      0.43,
      1.1625,
      0.49,
      1.2225,
      0.55,
      1.285,
      0.6125,
      1.345,
      0.6725,
      0,
      0.735,
      0.0625,
      0.795,
      0.1225,
      0.8575,
      0.185,
      0.9175,
      0.245,
      0.98,
      0.3075,
      1.04,
      0.3675,
      1.1,
      0.43,
      1.1625,
      0.49,
      1.2225,
      0.55,
      1.285,
      0.6125,
      1.345,
      0.6725
    ],
    "SoftwareVersions": "syngo_MR_B17",
    "SpacingBetweenSlices": 1.1,
    "StationName": "MRC18930",
    "TaskName": "auditory",
    "TotalReadoutTime": 0.0511141,
    "TxRefAmp": 210,
    "dataset": "ds001942",
    "dcmmeta_affine": [
      [
        -1.09492027759552,
        -0.04100212827324867,
        0.011217254213988781,
        102.66847229003906
      ],
      [
        -0.02245943620800972,
        0.31371042132377625,
        -1.0537132024765015,
        22.232385635375977
      ],
      [
        -0.03607774153351784,
        1.0490763187408447,
        0.31553545594215393,
        -109.380859375
      ],
      [
        0.0,
        0.0,
        0.0,
        1.0
      ]
    ],
    "dcmmeta_reorient_transform": [
      [
        0.0,
        -1.0,
        0.0,
        187.0
      ],
      [
        1.0,
        0.0,
        0.0,
        0.0
      ],
      [
        0.0,
        0.0,
        1.0,
        0.0
      ],
      [
        0.0,
        0.0,
        0.0,
        1.0
      ]
    ],
    "dcmmeta_shape": [
      188,
      188,
      46,
      150
    ],
    "dcmmeta_slice_dim": 2,
    "dcmmeta_version": 0.6,
    "global": {
      "const": {
        "AcquisitionMatrix": [
          188,
          0,
          0,
          188
        ],
        "AngioFlag": "N",
        "BitsAllocated": 16,
        "BitsStored": 12,
        "Columns": 1316,
        "EchoNumbers": 1,
        "EchoTime": 20.0,
        "EchoTrainLength": 1,
        "FlipAngle": 80.0,
        "HighBit": 11,
        "ImageOrientationPatient": [
          0.99924761605585,
          0.02049696029164,
          -0.0329253158756,
          -0.0374194164785,
          0.28629882111884,
          -0.9574094068351
        ],
        "ImagePositionPatient": [
          -689.41092549423,
          -270.49603658848,
          698.82329381524
        ],
        "ImageType": [
          "ORIGINAL",
          "PRIMARY",
          "M",
          "MB",
          "ND",
          "MOSAIC"
        ],
        "ImagedNucleus": "1H",
        "ImagingFrequency": 297.205489,
        "InPlanePhaseEncodingDirection": "COL",
        "LargestImagePixelValue": 4095,
        "MRAcquisitionType": "2D",
        "MagneticFieldStrength": 6.98,
        "Manufacturer": "SIEMENS",
        "ManufacturerModelName": "Investigational_Device_7T",
        "Modality": "MR",
        "NumberOfAverages": 1.0,
        "NumberOfPhaseEncodingSteps": 141,
        "PercentPhaseFieldOfView": 100.0,
        "PercentSampling": 100.0,
        "PerformedProcedureStepStartTime": "181136.593000",
        "PhotometricInterpretation": "MONOCHROME2",
        "PixelBandwidth": 1400.0,
        "PixelRepresentation": 0,
        "PixelSpacing": [
          1.0957447290421,
          1.0957447290421
        ],
        "ProtocolName": "cmrr_mbep2d_bold_AP_run1",
        "RepetitionTime": 2600.0,
        "Rows": 1316,
        "SAR": 0.05893327929986,
        "SamplesPerPixel": 1,
        "ScanOptions": [
          "PFP",
          "FS"
        ],
        "ScanningSequence": "EP",
        "SequenceName": "epfid2d1_188",
        "SequenceVariant": [
          "SK",
          "SS"
        ],
        "SeriesDescription": "cmrr_mbep2d_bold_AP_run1",
        "SeriesNumber": 12,
        "SeriesTime": "183619.656000",
        "SliceLocation": -51.625853746699,
        "SliceThickness": 1.1000000238419,
        "SmallestImagePixelValue": 0,
        "SoftwareVersions": "syngo MR B17",
        "SpacingBetweenSlices": 1.1000000357126,
        "SpecificCharacterSet": "ISO_IR 100",
        "StudyID": "1",
        "StudyTime": "181136.484000",
        "TransmitCoilName": "32Ch_Head_7T",
        "VariableFlipAngleFlag": "N",
        "WindowCenterWidthExplanation": "Algo1",
        "dBdt": 0.0
      },
      "slices": {}
    },
    "modality": "bold",
    "run_id": 1,
    "session_id": "SES03",
    "subject_id": "S06",
    "task_id": "auditory",
    "time": {
      "samples": {
        "AcquisitionNumber": [
          1,
          2,
          3,
          4,
          5,
          6,
          7,
          8,
          9,
          10,
          11,
          12,
          13,
          14,
          15,
          16,
          17,
          18,
          19,
          20,
          21,
          22,
          23,
          24,
          25,
          26,
          27,
          28,
          29,
          30,
          31,
          32,
          33,
          34,
          35,
          36,
          37,
          38,
          39,
          40,
          41,
          42,
          43,
          44,
          45,
          46,
          47,
          48,
          49,
          50,
          51,
          52,
          53,
          54,
          55,
          56,
          57,
          58,
          59,
          60,
          61,
          62,
          63,
          64,
          65,
          66,
          67,
          68,
          69,
          70,
          71,
          72,
          73,
          74,
          75,
          76,
          77,
          78,
          79,
          80,
          81,
          82,
          83,
          84,
          85,
          86,
          87,
          88,
          89,
          90,
          91,
          92,
          93,
          94,
          95,
          96,
          97,
          98,
          99,
          100,
          101,
          102,
          103,
          104,
          105,
          106,
          107,
          108,
          109,
          110,
          111,
          112,
          113,
          114,
          115,
          116,
          117,
          118,
          119,
          120,
          121,
          122,
          123,
          124,
          125,
          126,
          127,
          128,
          129,
          130,
          131,
          132,
          133,
          134,
          135,
          136,
          137,
          138,
          139,
          140,
          141,
          142,
          143,
          144,
          145,
          146,
          147,
          148,
          149,
          150
        ],
        "AcquisitionTime": [
          "183611.017500",
          "183613.630000",
          "183616.240000",
          "183618.850000",
          "183621.460000",
          "183624.070000",
          "183626.682500",
          "183629.292500",
          "183631.902500",
          "183634.512500",
          "183637.122500",
          "183639.732500",
          "183642.345000",
          "183644.955000",
          "183647.565000",
          "183650.175000",
          "183652.785000",
          "183655.395000",
          "183658.007500",
          "183700.617500",
          "183703.227500",
          "183705.837500",
          "183708.447500",
          "183711.060000",
          "183713.670000",
          "183716.280000",
          "183718.890000",
          "183721.500000",
          "183724.110000",
          "183726.722500",
          "183729.332500",
          "183731.942500",
          "183734.552500",
          "183737.162500",
          "183739.772500",
          "183742.385000",
          "183744.995000",
          "183747.605000",
          "183750.215000",
          "183752.825000",
          "183755.437500",
          "183758.047500",
          "183800.657500",
          "183803.267500",
          "183805.877500",
          "183808.487500",
          "183811.100000",
          "183813.710000",
          "183816.320000",
          "183818.930000",
          "183821.540000",
          "183824.150000",
          "183826.762500",
          "183829.372500",
          "183831.982500",
          "183834.592500",
          "183837.202500",
          "183839.815000",
          "183842.425000",
          "183845.035000",
          "183847.645000",
          "183850.255000",
          "183852.865000",
          "183855.477500",
          "183858.087500",
          "183900.697500",
          "183903.307500",
          "183905.917500",
          "183908.527500",
          "183911.140000",
          "183913.750000",
          "183916.360000",
          "183918.970000",
          "183921.580000",
          "183924.192500",
          "183926.802500",
          "183929.412500",
          "183932.022500",
          "183934.632500",
          "183937.242500",
          "183939.855000",
          "183942.465000",
          "183945.075000",
          "183947.685000",
          "183950.295000",
          "183952.905000",
          "183955.517500",
          "183958.127500",
          "184000.737500",
          "184003.347500",
          "184005.957500",
          "184008.570000",
          "184011.180000",
          "184013.790000",
          "184016.400000",
          "184019.010000",
          "184021.620000",
          "184024.232500",
          "184026.842500",
          "184029.452500",
          "184032.062500",
          "184034.672500",
          "184037.282500",
          "184039.895000",
          "184042.505000",
          "184045.115000",
          "184047.725000",
          "184050.335000",
          "184052.947500",
          "184055.557500",
          "184058.167500",
          "184100.777500",
          "184103.387500",
          "184105.997500",
          "184108.610000",
          "184111.220000",
          "184113.830000",
          "184116.440000",
          "184119.050000",
          "184121.660000",
          "184124.272500",
          "184126.882500",
          "184129.492500",
          "184132.102500",
          "184134.712500",
          "184137.325000",
          "184139.935000",
          "184142.545000",
          "184145.155000",
          "184147.765000",
          "184150.375000",
          "184152.987500",
          "184155.597500",
          "184158.207500",
          "184200.817500",
          "184203.427500",
          "184206.037500",
          "184208.650000",
          "184211.260000",
          "184213.870000",
          "184216.480000",
          "184219.090000",
          "184221.702500",
          "184224.312500",
          "184226.922500",
          "184229.532500",
          "184232.142500",
          "184234.752500",
          "184237.365000",
          "184239.975000"
        ],
        "ContentTime": [
          "183619.656000",
          "183620.156000",
          "183620.656000",
          "183623.156000",
          "183625.656000",
          "183628.156000",
          "183630.656000",
          "183633.656000",
          "183636.156000",
          "183638.656000",
          "183641.156000",
          "183643.656000",
          "183646.656000",
          "183649.156000",
          "183651.656000",
          "183654.156000",
          "183656.656000",
          "183659.656000",
          "183702.156000",
          "183704.656000",
          "183707.156000",
          "183709.656000",
          "183712.656000",
          "183715.156000",
          "183717.656000",
          "183720.156000",
          "183722.656000",
          "183725.656000",
          "183728.156000",
          "183730.656000",
          "183733.156000",
          "183735.656000",
          "183738.656000",
          "183741.156000",
          "183743.656000",
          "183746.156000",
          "183748.656000",
          "183751.656000",
          "183754.156000",
          "183756.656000",
          "183759.156000",
          "183801.656000",
          "183804.656000",
          "183807.156000",
          "183809.656000",
          "183812.156000",
          "183814.656000",
          "183817.656000",
          "183820.156000",
          "183822.656000",
          "183825.156000",
          "183827.656000",
          "183830.656000",
          "183833.156000",
          "183835.656000",
          "183838.156000",
          "183840.656000",
          "183843.656000",
          "183846.156000",
          "183848.656000",
          "183851.156000",
          "183853.656000",
          "183856.656000",
          "183859.156000",
          "183901.656000",
          "183904.156000",
          "183906.656000",
          "183909.656000",
          "183912.156000",
          "183914.656000",
          "183917.156000",
          "183919.656000",
          "183922.656000",
          "183925.156000",
          "183927.656000",
          "183930.156000",
          "183932.656000",
          "183935.656000",
          "183938.156000",
          "183940.656000",
          "183943.156000",
          "183945.656000",
          "183948.656000",
          "183951.156000",
          "183953.656000",
          "183956.156000",
          "183958.656000",
          "184001.656000",
          "184004.156000",
          "184006.656000",
          "184009.156000",
          "184011.656000",
          "184014.656000",
          "184017.156000",
          "184019.656000",
          "184022.156000",
          "184024.656000",
          "184027.656000",
          "184030.156000",
          "184032.656000",
          "184035.156000",
          "184037.656000",
          "184040.656000",
          "184043.156000",
          "184045.656000",
          "184048.156000",
          "184050.656000",
          "184053.656000",
          "184056.156000",
          "184058.656000",
          "184101.156000",
          "184103.656000",
          "184106.656000",
          "184109.156000",
          "184111.656000",
          "184114.156000",
          "184116.656000",
          "184119.156000",
          "184122.156000",
          "184124.656000",
          "184127.156000",
          "184129.656000",
          "184132.656000",
          "184135.156000",
          "184137.656000",
          "184140.156000",
          "184142.656000",
          "184145.656000",
          "184148.156000",
          "184150.656000",
          "184153.156000",
          "184155.656000",
          "184158.656000",
          "184201.156000",
          "184203.656000",
          "184206.156000",
          "184208.656000",
          "184211.656000",
          "184214.156000",
          "184216.656000",
          "184219.156000",
          "184221.656000",
          "184224.656000",
          "184227.156000",
          "184229.656000",
          "184232.156000",
          "184234.656000",
          "184237.656000",
          "184240.156000",
          "184247.359000"
        ],
        "InstanceCreationTime": [
          "183619.656000",
          "183620.156000",
          "183620.656000",
          "183623.156000",
          "183625.656000",
          "183628.156000",
          "183630.656000",
          "183633.656000",
          "183636.156000",
          "183638.656000",
          "183641.156000",
          "183643.656000",
          "183646.656000",
          "183649.156000",
          "183651.656000",
          "183654.156000",
          "183656.656000",
          "183659.656000",
          "183702.156000",
          "183704.656000",
          "183707.156000",
          "183709.656000",
          "183712.656000",
          "183715.156000",
          "183717.656000",
          "183720.156000",
          "183722.656000",
          "183725.656000",
          "183728.156000",
          "183730.656000",
          "183733.156000",
          "183735.656000",
          "183738.656000",
          "183741.156000",
          "183743.656000",
          "183746.156000",
          "183748.656000",
          "183751.656000",
          "183754.156000",
          "183756.656000",
          "183759.156000",
          "183801.656000",
          "183804.656000",
          "183807.156000",
          "183809.656000",
          "183812.156000",
          "183814.656000",
          "183817.656000",
          "183820.156000",
          "183822.656000",
          "183825.156000",
          "183827.656000",
          "183830.656000",
          "183833.156000",
          "183835.656000",
          "183838.156000",
          "183840.656000",
          "183843.656000",
          "183846.156000",
          "183848.656000",
          "183851.156000",
          "183853.656000",
          "183856.656000",
          "183859.156000",
          "183901.656000",
          "183904.156000",
          "183906.656000",
          "183909.656000",
          "183912.156000",
          "183914.656000",
          "183917.156000",
          "183919.656000",
          "183922.656000",
          "183925.156000",
          "183927.656000",
          "183930.156000",
          "183932.656000",
          "183935.656000",
          "183938.156000",
          "183940.656000",
          "183943.156000",
          "183945.656000",
          "183948.656000",
          "183951.156000",
          "183953.656000",
          "183956.156000",
          "183958.656000",
          "184001.656000",
          "184004.156000",
          "184006.656000",
          "184009.156000",
          "184011.656000",
          "184014.656000",
          "184017.156000",
          "184019.656000",
          "184022.156000",
          "184024.656000",
          "184027.656000",
          "184030.156000",
          "184032.656000",
          "184035.156000",
          "184037.656000",
          "184040.656000",
          "184043.156000",
          "184045.656000",
          "184048.156000",
          "184050.656000",
          "184053.656000",
          "184056.156000",
          "184058.656000",
          "184101.156000",
          "184103.656000",
          "184106.656000",
          "184109.156000",
          "184111.656000",
          "184114.156000",
          "184116.656000",
          "184119.156000",
          "184122.156000",
          "184124.656000",
          "184127.156000",
          "184129.656000",
          "184132.656000",
          "184135.156000",
          "184137.656000",
          "184140.156000",
          "184142.656000",
          "184145.656000",
          "184148.156000",
          "184150.656000",
          "184153.156000",
          "184155.656000",
          "184158.656000",
          "184201.156000",
          "184203.656000",
          "184206.156000",
          "184208.656000",
          "184211.656000",
          "184214.156000",
          "184216.656000",
          "184219.156000",
          "184221.656000",
          "184224.656000",
          "184227.156000",
          "184229.656000",
          "184232.156000",
          "184234.656000",
          "184237.656000",
          "184240.156000",
          "184247.359000"
        ],
        "InstanceNumber": [
          1,
          2,
          3,
          4,
          5,
          6,
          7,
          8,
          9,
          10,
          11,
          12,
          13,
          14,
          15,
          16,
          17,
          18,
          19,
          20,
          21,
          22,
          23,
          24,
          25,
          26,
          27,
          28,
          29,
          30,
          31,
          32,
          33,
          34,
          35,
          36,
          37,
          38,
          39,
          40,
          41,
          42,
          43,
          44,
          45,
          46,
          47,
          48,
          49,
          50,
          51,
          52,
          53,
          54,
          55,
          56,
          57,
          58,
          59,
          60,
          61,
          62,
          63,
          64,
          65,
          66,
          67,
          68,
          69,
          70,
          71,
          72,
          73,
          74,
          75,
          76,
          77,
          78,
          79,
          80,
          81,
          82,
          83,
          84,
          85,
          86,
          87,
          88,
          89,
          90,
          91,
          92,
          93,
          94,
          95,
          96,
          97,
          98,
          99,
          100,
          101,
          102,
          103,
          104,
          105,
          106,
          107,
          108,
          109,
          110,
          111,
          112,
          113,
          114,
          115,
          116,
          117,
          118,
          119,
          120,
          121,
          122,
          123,
          124,
          125,
          126,
          127,
          128,
          129,
          130,
          131,
          132,
          133,
          134,
          135,
          136,
          137,
          138,
          139,
          140,
          141,
          142,
          143,
          144,
          145,
          146,
          147,
          148,
          149,
          150
        ],
        "WindowCenter": [
          870.0,
          869.0,
          869.0,
          869.0,
          869.0,
          869.0,
          869.0,
          869.0,
          869.0,
          869.0,
          868.0,
          868.0,
          867.0,
          868.0,
          869.0,
          868.0,
          867.0,
          868.0,
          868.0,
          868.0,
          868.0,
          868.0,
          867.0,
          867.0,
          868.0,
          868.0,
          869.0,
          868.0,
          868.0,
          868.0,
          867.0,
          868.0,
          868.0,
          867.0,
          867.0,
          867.0,
          866.0,
          866.0,
          867.0,
          867.0,
          867.0,
          867.0,
          868.0,
          867.0,
          866.0,
          867.0,
          868.0,
          868.0,
          868.0,
          867.0,
          867.0,
          866.0,
          868.0,
          867.0,
          867.0,
          867.0,
          867.0,
          867.0,
          867.0,
          867.0,
          868.0,
          867.0,
          868.0,
          867.0,
          868.0,
          868.0,
          868.0,
          868.0,
          868.0,
          867.0,
          867.0,
          869.0,
          869.0,
          868.0,
          869.0,
          868.0,
          869.0,
          868.0,
          869.0,
          868.0,
          869.0,
          868.0,
          868.0,
          869.0,
          869.0,
          867.0,
          868.0,
          868.0,
          870.0,
          868.0,
          868.0,
          868.0,
          869.0,
          867.0,
          869.0,
          868.0,
          869.0,
          869.0,
          869.0,
          869.0,
          869.0,
          868.0,
          868.0,
          868.0,
          869.0,
          870.0,
          870.0,
          869.0,
          868.0,
          867.0,
          867.0,
          867.0,
          868.0,
          869.0,
          869.0,
          869.0,
          868.0,
          867.0,
          867.0,
          867.0,
          867.0,
          868.0,
          869.0,
          869.0,
          867.0,
          868.0,
          869.0,
          869.0,
          869.0,
          868.0,
          869.0,
          870.0,
          868.0,
          868.0,
          868.0,
          868.0,
          867.0,
          868.0,
          867.0,
          868.0,
          868.0,
          868.0,
          869.0,
          868.0,
          868.0,
          868.0,
          868.0,
          868.0,
          868.0,
          868.0
        ],
        "WindowWidth": [
          1976.0,
          1973.0,
          1973.0,
          1973.0,
          1973.0,
          1973.0,
          1973.0,
          1974.0,
          1973.0,
          1973.0,
          1968.0,
          1969.0,
          1967.0,
          1970.0,
          1971.0,
          1968.0,
          1967.0,
          1968.0,
          1969.0,
          1969.0,
          1970.0,
          1969.0,
          1967.0,
          1967.0,
          1969.0,
          1972.0,
          1972.0,
          1970.0,
          1970.0,
          1969.0,
          1967.0,
          1969.0,
          1969.0,
          1967.0,
          1967.0,
          1965.0,
          1964.0,
          1963.0,
          1964.0,
          1965.0,
          1968.0,
          1968.0,
          1968.0,
          1964.0,
          1963.0,
          1967.0,
          1968.0,
          1968.0,
          1969.0,
          1966.0,
          1965.0,
          1963.0,
          1968.0,
          1966.0,
          1967.0,
          1966.0,
          1967.0,
          1966.0,
          1967.0,
          1966.0,
          1969.0,
          1967.0,
          1969.0,
          1967.0,
          1968.0,
          1968.0,
          1969.0,
          1971.0,
          1969.0,
          1964.0,
          1967.0,
          1971.0,
          1972.0,
          1970.0,
          1971.0,
          1970.0,
          1973.0,
          1971.0,
          1972.0,
          1971.0,
          1971.0,
          1968.0,
          1970.0,
          1971.0,
          1971.0,
          1966.0,
          1969.0,
          1970.0,
          1974.0,
          1969.0,
          1967.0,
          1970.0,
          1972.0,
          1966.0,
          1971.0,
          1969.0,
          1970.0,
          1973.0,
          1973.0,
          1970.0,
          1971.0,
          1968.0,
          1969.0,
          1970.0,
          1973.0,
          1975.0,
          1976.0,
          1971.0,
          1968.0,
          1966.0,
          1964.0,
          1965.0,
          1969.0,
          1972.0,
          1972.0,
          1972.0,
          1967.0,
          1967.0,
          1965.0,
          1966.0,
          1965.0,
          1969.0,
          1973.0,
          1971.0,
          1966.0,
          1971.0,
          1971.0,
          1974.0,
          1973.0,
          1969.0,
          1975.0,
          1976.0,
          1970.0,
          1968.0,
          1972.0,
          1970.0,
          1968.0,
          1968.0,
          1968.0,
          1968.0,
          1968.0,
          1969.0,
          1974.0,
          1969.0,
          1969.0,
          1971.0,
          1972.0,
          1971.0,
          1971.0,
          1971.0
        ]
      },
      "slices": {}
    }
  },
  "dummy_trs": 0,
  "dvars_nstd": 79.15442575570474,
  "dvars_std": 1.0707553726174495,
  "dvars_vstd": 1.0057903661073826,
  "efc": 0.5802267264192305,
  "fber": 247.0996856689453,
  "fd_mean": 0.05504448541565848,
  "fd_num": 0,
  "fd_perc": 0.0,
  "fwhm_avg": 2.9907187578207957,
  "fwhm_x": 2.615262409252274,
  "fwhm_y": 2.9970666643051347,
  "fwhm_z": 3.3598271999049794,
  "gcor": 0.000752912,
  "gsr_x": -0.016293099150061607,
  "gsr_y": 0.05817362293601036,
  "provenance": {
    "md5sum": "361046d3a40bc78bc859ddda78e21881",
    "settings": {
      "fd_thres": 0.2,
      "testing": false
    },
    "software": "mriqc",
    "version": "23.0.1",
    "webapi_port": null,
    "webapi_url": "https://mriqc.nimh.nih.gov/api/v1"
  },
  "size_t": 150,
  "size_x": 188,
  "size_y": 188,
  "size_z": 46,
  "snr": 2.0405604786239486,
  "spacing_tr": 2.5999999046325684,
  "spacing_x": 1.0957447290420532,
  "spacing_y": 1.0957447290420532,
  "spacing_z": 1.100000023841858,
  "summary_bg_k": 31.33716851011622,
  "summary_bg_mad": 29.404947770813525,
  "summary_bg_mean": 83.63589477539062,
  "summary_bg_median": 55.58000183105469,
  "summary_bg_n": 1003558.0,
  "summary_bg_p05": 32.0533332824707,
  "summary_bg_p95": 231.19334411621094,
  "summary_bg_stdv": 80.003173828125,
