{
  "aor": 0.0011495333333333333,
  "aqi": 0.013403282666666664,
  "bids_meta": {
    "AcquisitionMatrixPE": 188,
    "AcquisitionNumber": 1,
    "AcquisitionTime": "19:49:4.027500",
    "BandwidthPerPixelPhaseEncode": 19.46,
    "BaseResolution": 188,
    "ConversionSoftware": "dcm2niix",
    "ConversionSoftwareVersion": "v1.0.20180606 GCC4.8.5",
    "DelayTime": 1.2,
    "DerivedVendorReportedEchoSpacing": 0.000820013,
    "DeviceSerialNumber": "18930",
    "DwellTime": 1.9e-06,
    "EchoTime": 0.02,
    "EffectiveEchoSpacing": 0.000273338,
    "FlipAngle": 80,
    "ImageComments": "Unaliased_MB2_PE2",
    "ImageOrientationPatientDICOM": [
      0.999248,
      0.020497,
      -0.0329253,
      -0.0374194,
      0.286299,
      -0.957409
    ],
    "ImageType": [
      "ORIGINAL",
      "PRIMARY",
      "M",
      "MB",
      "ND",
      "MOSAIC"
    ],
    "InPlanePhaseEncodingDirectionDICOM": "COL",
    "InstitutionAddress": "Oxfordlaan_55_Maastricht_753AAF_Limburg_NL_6229_EV",
    "InstitutionName": "Scannexus",
    "InstitutionalDepartmentName": "MRI_7T",
    "MRAcquisitionType": "2D",
    "MagneticFieldStrength": 6.98,
    "Manufacturer": "Siemens",
    "ManufacturersModelName": "Investigational_Device_7T",
    "Modality": "MR",
    "MultibandAccelerationFactor": 2,
    "ParallelReductionFactorInPlane": 3,
    "PartialFourier": 0.75,
    "PatientPosition": "HFS",
    "PercentPhaseFOV": 100,
    "PhaseEncodingDirection": "j",
    "PhaseEncodingSteps": 141,
    "PhaseResolution": 1,
    "PixelBandwidth": 1400,
    "ProcedureStepDescription": "FeDem_Faruk",
    "ProtocolName": "cmrr_mbep2d_bold_AP_run10",
    "PulseSequenceDetails": "%CustomerSeq%_cmrr_mbep2d_bold",
    "ReceiveCoilName": "32Ch_Head_7T",
    "ReconMatrixPE": 188,
    "RepetitionTime": 2.6,
    "SAR": 0.0593233,
    "ScanOptions": "PFP_FS",
    "ScanningSequence": "EP",
    "SequenceName": "epfid2d1_188",
    "SequenceVariant": "SK_SS",
    "SeriesDescription": "cmrr_mbep2d_bold_AP_run10",
    "SeriesNumber": 23,
    "ShimSetting": [
      117,
      -256,
      552,
      270,
      8,
      -144,
      276,
      73
    ],
    "SliceThickness": 1.1,
    "SliceTiming": [
      0,
      0.7325,
      0.06,
      0.795,
      0.1225,
      0.855,
      0.1825,
      0.915,
      0.245,
      0.9775,
      0.305,
      1.0375,
      0.3675,
      1.1,
      0.4275,
      1.16,
      0.4875,
      1.2225,
      0.55,
      1.2825,
      0.61,
      1.345,
      0.6725,
      0,
      0.7325,
      0.06,
      0.795,
      0.1225,
      0.855,
      0.1825,
      0.915,
      0.245,
      0.9775,
      0.305,
      1.0375,
      0.3675,
      1.1,
      0.4275,
      1.16,
      0.4875,
      1.2225,
      0.55,
      1.2825,
      0.61,
      1.345,
      0.6725
    ],
    "SoftwareVersions": "syngo_MR_B17",
    "SpacingBetweenSlices": 1.1,
    "StationName": "MRC18930",
    "TaskName": "auditory",
    "TotalReadoutTime": 0.0511141,
    "TxRefAmp": 210,
    "dataset": "ds001942",
    "dcmmeta_affine": [
      [
        -1.09492027759552,
        -0.04100212827324867,
        0.011217254213988781,
        102.66847229003906
      ],
      [
        -0.02245943620800972,
        0.31371042132377625,
        -1.0537132024765015,
        22.232385635375977
      ],
      [
        -0.03607774153351784,
        1.0490763187408447,
        0.31553545594215393,
        -109.380859375
      ],
      [
        0.0,
        0.0,
        0.0,
        1.0
      ]
    ],
    "dcmmeta_reorient_transform": [
      [
        0.0,
        -1.0,
        0.0,
        187.0
      ],
      [
        1.0,
        0.0,
        0.0,
        0.0
      ],
      [
        0.0,
        0.0,
        1.0,
        0.0
      ],
      [
        0.0,
        0.0,
        0.0,
        1.0
      ]
    ],
    "dcmmeta_shape": [
      188,
      188,
      46,
      150
    ],
    "dcmmeta_slice_dim": 2,
    "dcmmeta_version": 0.6,
    "global": {
      "const": {
        "AcquisitionMatrix": [
          188,
          0,
          0,
          188
        ],
        "AngioFlag": "N",
        "BitsAllocated": 16,
        "BitsStored": 12,
        "Columns": 1316,
        "EchoNumbers": 1,
        "EchoTime": 20.0,
        "EchoTrainLength": 1,
        "FlipAngle": 80.0,
        "HighBit": 11,
        "ImageOrientationPatient": [
          0.99924761605585,
          0.02049696029164,
          -0.0329253158756,
          -0.0374194164785,
          0.28629882111884,
          -0.9574094068351
        ],
        "ImagePositionPatient": [
          -689.41092549423,
          -270.49603658848,
          698.82329381524
        ],
        "ImageType": [
          "ORIGINAL",
          "PRIMARY",
          "M",
          "MB",
          "ND",
          "MOSAIC"
        ],
        "ImagedNucleus": "1H",
        "ImagingFrequency": 297.205526,
        "InPlanePhaseEncodingDirection": "COL",
        "LargestImagePixelValue": 4095,
        "MRAcquisitionType": "2D",
        "MagneticFieldStrength": 6.98,
        "Manufacturer": "SIEMENS",
        "ManufacturerModelName": "Investigational_Device_7T",
        "Modality": "MR",
        "NumberOfAverages": 1.0,
        "NumberOfPhaseEncodingSteps": 141,
        "PercentPhaseFieldOfView": 100.0,
        "PercentSampling": 100.0,
        "PerformedProcedureStepStartTime": "181136.593000",
        "PhotometricInterpretation": "MONOCHROME2",
        "PixelBandwidth": 1400.0,
        "PixelRepresentation": 0,
        "PixelSpacing": [
          1.0957447290421,
          1.0957447290421
        ],
        "ProtocolName": "cmrr_mbep2d_bold_AP_run10",
        "RepetitionTime": 2600.0,
        "Rows": 1316,
        "SAR": 0.05932325043455,
        "SamplesPerPixel": 1,
        "ScanOptions": [
          "PFP",
          "FS"
        ],
        "ScanningSequence": "EP",
        "SequenceName": "epfid2d1_188",
        "SequenceVariant": [
          "SK",
          "SS"
        ],
        "SeriesDescription": "cmrr_mbep2d_bold_AP_run10",
        "SeriesNumber": 23,
        "SeriesTime": "194913.531000",
        "SliceLocation": -51.625853746699,
        "SliceThickness": 1.1000000238419,
        "SmallestImagePixelValue": 0,
        "SoftwareVersions": "syngo MR B17",
        "SpacingBetweenSlices": 1.1000000357126,
        "SpecificCharacterSet": "ISO_IR 100",
        "StudyID": "1",
        "StudyTime": "181136.484000",
        "TransmitCoilName": "32Ch_Head_7T",
        "VariableFlipAngleFlag": "N",
        "WindowCenterWidthExplanation": "Algo1",
        "dBdt": 0.0
      },
      "slices": {}
    },
    "modality": "bold",
    "run_id": 10,
    "session_id": "SES03",
    "subject_id": "S06",
    "task_id": "auditory",
    "time": {
      "samples": {
        "AcquisitionNumber": [
          1,
          2,
          3,
          4,
          5,
          6,
          7,
          8,
          9,
          10,
          11,
          12,
          13,
          14,
          15,
          16,
          17,
          18,
          19,
          20,
          21,
          22,
          23,
          24,
          25,
          26,
          27,
          28,
          29,
          30,
          31,
          32,
          33,
          34,
          35,
          36,
          37,
          38,
          39,
          40,
          41,
          42,
          43,
          44,
          45,
          46,
          47,
          48,
          49,
          50,
          51,
          52,
          53,
          54,
          55,
          56,
          57,
          58,
          59,
          60,
          61,
          62,
          63,
          64,
          65,
          66,
          67,
          68,
          69,
          70,
          71,
          72,
          73,
          74,
          75,
          76,
          77,
          78,
          79,
          80,
          81,
          82,
          83,
          84,
          85,
          86,
          87,
          88,
          89,
          90,
          91,
          92,
          93,
          94,
          95,
          96,
          97,
          98,
          99,
          100,
          101,
          102,
          103,
          104,
          105,
          106,
          107,
          108,
          109,
          110,
          111,
          112,
          113,
          114,
          115,
          116,
          117,
          118,
          119,
          120,
          121,
          122,
          123,
          124,
          125,
          126,
          127,
          128,
          129,
          130,
          131,
          132,
          133,
          134,
          135,
          136,
          137,
          138,
          139,
          140,
          141,
          142,
          143,
          144,
          145,
          146,
          147,
          148,
          149,
          150
        ],
        "AcquisitionTime": [
          "194904.027500",
          "194906.637500",
          "194909.247500",
          "194911.857500",
          "194914.470000",
          "194917.080000",
          "194919.690000",
          "194922.300000",
          "194924.910000",
          "194927.520000",
          "194930.132500",
          "194932.742500",
          "194935.352500",
          "194937.962500",
          "194940.572500",
          "194943.185000",
          "194945.795000",
          "194948.405000",
          "194951.015000",
          "194953.625000",
          "194956.235000",
          "194958.847500",
          "195001.457500",
          "195004.067500",
          "195006.677500",
          "195009.287500",
          "195011.897500",
          "195014.510000",
          "195017.120000",
          "195019.730000",
          "195022.340000",
          "195024.950000",
          "195027.562500",
          "195030.172500",
          "195032.782500",
          "195035.392500",
          "195038.002500",
          "195040.612500",
          "195043.225000",
          "195045.835000",
          "195048.445000",
          "195051.055000",
          "195053.665000",
          "195056.275000",
          "195058.887500",
          "195101.497500",
          "195104.107500",
          "195106.717500",
          "195109.327500",
          "195111.940000",
          "195114.550000",
          "195117.160000",
          "195119.770000",
          "195122.380000",
          "195124.990000",
          "195127.602500",
          "195130.212500",
          "195132.822500",
          "195135.432500",
          "195138.042500",
          "195140.652500",
          "195143.265000",
          "195145.875000",
          "195148.485000",
          "195151.095000",
          "195153.705000",
          "195156.317500",
          "195158.927500",
          "195201.537500",
          "195204.147500",
          "195206.757500",
          "195209.367500",
          "195211.980000",
          "195214.590000",
          "195217.200000",
          "195219.810000",
          "195222.420000",
          "195225.030000",
          "195227.642500",
          "195230.252500",
          "195232.862500",
          "195235.472500",
          "195238.082500",
          "195240.695000",
          "195243.305000",
          "195245.915000",
          "195248.525000",
          "195251.135000",
          "195253.745000",
          "195256.357500",
          "195258.967500",
          "195301.577500",
          "195304.187500",
          "195306.797500",
          "195309.407500",
          "195312.020000",
          "195314.630000",
          "195317.240000",
          "195319.850000",
          "195322.460000",
          "195325.072500",
          "195327.682500",
          "195330.292500",
          "195332.902500",
          "195335.512500",
          "195338.122500",
          "195340.735000",
          "195343.345000",
          "195345.955000",
          "195348.565000",
          "195351.175000",
          "195353.785000",
          "195356.397500",
          "195359.007500",
          "195401.617500",
          "195404.227500",
          "195406.837500",
          "195409.450000",
          "195412.060000",
          "195414.670000",
          "195417.280000",
          "195419.890000",
          "195422.500000",
          "195425.112500",
          "195427.722500",
          "195430.332500",
          "195432.942500",
          "195435.552500",
          "195438.162500",
          "195440.775000",
          "195443.385000",
          "195445.995000",
          "195448.605000",
          "195451.215000",
          "195453.827500",
          "195456.437500",
          "195459.047500",
          "195501.657500",
          "195504.267500",
          "195506.877500",
          "195509.490000",
          "195512.100000",
          "195514.710000",
          "195517.320000",
          "195519.930000",
          "195522.540000",
          "195525.152500",
          "195527.762500",
          "195530.372500",
          "195532.982500"
        ],
        "ContentTime": [
          "194913.531000",
          "194914.031000",
          "194914.531000",
          "194917.031000",
          "194919.531000",
          "194922.031000",
          "194924.531000",
          "194927.031000",
          "194930.031000",
          "194932.531000",
          "194935.031000",
          "194937.531000",
          "194940.031000",
          "194943.031000",
          "194945.531000",
          "194948.031000",
          "194950.531000",
          "194953.031000",
          "194956.031000",
          "194958.531000",
          "195001.031000",
          "195003.531000",
          "195006.031000",
          "195009.031000",
          "195011.531000",
          "195014.031000",
          "195016.531000",
          "195019.031000",
          "195022.031000",
          "195024.531000",
          "195027.031000",
          "195029.531000",
          "195032.031000",
          "195035.031000",
          "195037.531000",
          "195040.031000",
          "195042.531000",
          "195045.031000",
          "195048.031000",
          "195050.531000",
          "195053.031000",
          "195055.531000",
          "195058.031000",
          "195101.031000",
          "195103.531000",
          "195106.031000",
          "195108.531000",
          "195111.031000",
          "195114.031000",
          "195116.531000",
          "195119.031000",
          "195121.531000",
          "195124.031000",
          "195127.031000",
          "195129.531000",
          "195132.031000",
          "195134.531000",
          "195137.531000",
          "195140.031000",
          "195142.531000",
          "195145.031000",
          "195147.531000",
          "195150.031000",
          "195153.031000",
          "195155.531000",
          "195158.031000",
          "195200.531000",
          "195203.031000",
          "195206.031000",
          "195208.531000",
          "195211.031000",
          "195213.531000",
          "195216.031000",
          "195219.031000",
          "195221.531000",
          "195224.031000",
          "195226.531000",
          "195229.031000",
          "195232.031000",
          "195234.531000",
          "195237.031000",
          "195239.531000",
          "195242.031000",
          "195245.031000",
          "195247.531000",
          "195250.031000",
          "195252.531000",
          "195255.031000",
          "195258.031000",
          "195300.531000",
          "195303.031000",
          "195305.531000",
          "195308.031000",
          "195311.031000",
          "195313.531000",
          "195316.031000",
          "195318.531000",
          "195321.031000",
          "195324.031000",
          "195326.531000",
          "195329.031000",
          "195331.531000",
          "195334.031000",
          "195337.031000",
          "195339.531000",
          "195342.031000",
          "195344.531000",
          "195347.031000",
          "195350.031000",
          "195352.531000",
          "195355.031000",
          "195357.531000",
          "195400.031000",
          "195403.031000",
          "195405.531000",
          "195408.031000",
          "195410.531000",
          "195413.031000",
          "195416.031000",
          "195418.531000",
          "195421.031000",
          "195423.531000",
          "195426.031000",
          "195429.031000",
          "195431.531000",
          "195434.031000",
          "195436.531000",
          "195439.031000",
          "195442.031000",
          "195444.531000",
          "195447.031000",
          "195449.531000",
          "195452.031000",
          "195455.031000",
          "195457.531000",
          "195500.031000",
          "195502.531000",
          "195505.031000",
          "195508.031000",
          "195510.531000",
          "195513.031000",
          "195515.531000",
          "195518.031000",
          "195521.031000",
          "195523.531000",
          "195526.031000",
          "195528.531000",
          "195531.031000",
          "195534.031000",
          "195541.187000"
        ],
        "InstanceCreationTime": [
          "194913.531000",
          "194914.031000",
          "194914.531000",
          "194917.031000",
          "194919.531000",
          "194922.031000",
          "194924.531000",
          "194927.031000",
          "194930.031000",
          "194932.531000",
          "194935.031000",
          "194937.531000",
          "194940.031000",
          "194943.031000",
          "194945.531000",
          "194948.031000",
          "194950.531000",
          "194953.031000",
          "194956.031000",
          "194958.531000",
          "195001.031000",
          "195003.531000",
          "195006.031000",
          "195009.031000",
          "195011.531000",
          "195014.031000",
          "195016.531000",
          "195019.031000",
          "195022.031000",
          "195024.531000",
          "195027.031000",
          "195029.531000",
          "195032.031000",
          "195035.031000",
          "195037.531000",
          "195040.031000",
          "195042.531000",
          "195045.031000",
          "195048.031000",
          "195050.531000",
          "195053.031000",
          "195055.531000",
          "195058.031000",
          "195101.031000",
          "195103.531000",
          "195106.031000",
          "195108.531000",
          "195111.031000",
          "195114.031000",
          "195116.531000",
          "195119.031000",
          "195121.531000",
          "195124.031000",
          "195127.031000",
          "195129.531000",
          "195132.031000",
          "195134.531000",
          "195137.531000",
          "195140.031000",
          "195142.531000",
          "195145.031000",
          "195147.531000",
          "195150.031000",
          "195153.031000",
          "195155.531000",
          "195158.031000",
          "195200.531000",
          "195203.031000",
          "195206.031000",
          "195208.531000",
          "195211.031000",
          "195213.531000",
          "195216.031000",
          "195219.031000",
          "195221.531000",
          "195224.031000",
          "195226.531000",
          "195229.031000",
          "195232.031000",
          "195234.531000",
          "195237.031000",
          "195239.531000",
          "195242.031000",
          "195245.031000",
          "195247.531000",
          "195250.031000",
          "195252.531000",
          "195255.031000",
          "195258.031000",
          "195300.531000",
          "195303.031000",
          "195305.531000",
          "195308.031000",
          "195311.031000",
          "195313.531000",
          "195316.031000",
          "195318.531000",
          "195321.031000",
          "195324.031000",
          "195326.531000",
          "195329.031000",
          "195331.531000",
          "195334.031000",
          "195337.031000",
          "195339.531000",
          "195342.031000",
          "195344.531000",
          "195347.031000",
          "195350.031000",
          "195352.531000",
          "195355.031000",
          "195357.531000",
          "195400.031000",
          "195403.031000",
          "195405.531000",
          "195408.031000",
          "195410.531000",
          "195413.031000",
          "195416.031000",
          "195418.531000",
          "195421.031000",
          "195423.531000",
          "195426.031000",
          "195429.031000",
          "195431.531000",
          "195434.031000",
          "195436.531000",
          "195439.031000",
          "195442.031000",
          "195444.531000",
          "195447.031000",
          "195449.531000",
          "195452.031000",
          "195455.031000",
          "195457.531000",
          "195500.031000",
          "195502.531000",
          "195505.031000",
          "195508.031000",
          "195510.531000",
          "195513.031000",
          "195515.531000",
          "195518.031000",
          "195521.031000",
          "195523.531000",
          "195526.031000",
          "195528.531000",
          "195531.031000",
          "195534.031000",
          "195541.187000"
        ],
        "InstanceNumber": [
          1,
          2,
          3,
          4,
          5,
          6,
          7,
          8,
          9,
          10,
          11,
          12,
          13,
          14,
          15,
          16,
          17,
          18,
          19,
          20,
          21,
          22,
          23,
          24,
          25,
          26,
          27,
          28,
          29,
          30,
          31,
          32,
          33,
          34,
          35,
          36,
          37,
          38,
          39,
          40,
          41,
          42,
          43,
          44,
          45,
          46,
          47,
          48,
          49,
          50,
          51,
          52,
          53,
          54,
          55,
          56,
          57,
          58,
          59,
          60,
          61,
          62,
          63,
          64,
          65,
          66,
          67,
          68,
          69,
          70,
          71,
          72,
          73,
          74,
          75,
          76,
          77,
          78,
          79,
          80,
          81,
          82,
          83,
          84,
          85,
          86,
          87,
          88,
          89,
          90,
          91,
          92,
          93,
          94,
          95,
          96,
          97,
          98,
          99,
          100,
          101,
          102,
          103,
          104,
          105,
          106,
          107,
          108,
          109,
          110,
          111,
          112,
          113,
          114,
          115,
          116,
          117,
          118,
          119,
          120,
          121,
          122,
          123,
          124,
          125,
          126,
          127,
          128,
          129,
          130,
          131,
          132,
          133,
          134,
          135,
          136,
          137,
          138,
          139,
          140,
          141,
          142,
          143,
          144,
          145,
          146,
          147,
          148,
          149,
          150
        ],
        "WindowCenter": [
          862.0,
          861.0,
          861.0,
          861.0,
          860.0,
          861.0,
          860.0,
          860.0,
          861.0,
          860.0,
          859.0,
          858.0,
          859.0,
          860.0,
          860.0,
          859.0,
          859.0,
          859.0,
          859.0,
          860.0,
          860.0,
          858.0,
          858.0,
          858.0,
          859.0,
          859.0,
          858.0,
          858.0,
          858.0,
          860.0,
          860.0,
          858.0,
          859.0,
          859.0,
          859.0,
          859.0,
          859.0,
          858.0,
          857.0,
          858.0,
          859.0,
          859.0,
          859.0,
          860.0,
          859.0,
          859.0,
          860.0,
          860.0,
          859.0,
          858.0,
          858.0,
          859.0,
          858.0,
          858.0,
          858.0,
          859.0,
          861.0,
          860.0,
          858.0,
          858.0,
          859.0,
          859.0,
          858.0,
          859.0,
          859.0,
          858.0,
          858.0,
          858.0,
          858.0,
          858.0,
          857.0,
          858.0,
          857.0,
          858.0,
          858.0,
          858.0,
          858.0,
          858.0,
          858.0,
          858.0,
          858.0,
          860.0,
          859.0,
          858.0,
          858.0,
          858.0,
          858.0,
          859.0,
          860.0,
          859.0,
          859.0,
          859.0,
          859.0,
          859.0,
          859.0,
          859.0,
          859.0,
          859.0,
          859.0,
          860.0,
          860.0,
          859.0,
          859.0,
          858.0,
          857.0,
          858.0,
          858.0,
          858.0,
          859.0,
          858.0,
          858.0,
          858.0,
          858.0,
          858.0,
          858.0,
          859.0,
          859.0,
          858.0,
          858.0,
          858.0,
          858.0,
          860.0,
          859.0,
          860.0,
          859.0,
          859.0,
          859.0,
          859.0,
          859.0,
          859.0,
          859.0,
          860.0,
          860.0,
          859.0,
          859.0,
          859.0,
          858.0,
          859.0,
          859.0,
          859.0,
          859.0,
          859.0,
          859.0,
          860.0,
          860.0,
          861.0,
          861.0,
          861.0,
          860.0,
          859.0
        ],
        "WindowWidth": [
          1952.0,
          1950.0,
          1951.0,
          1949.0,
          1946.0,
          1950.0,
          1948.0,
          1948.0,
          1948.0,
          1946.0,
          1942.0,
          1939.0,
          1942.0,
          1947.0,
          1946.0,
          1943.0,
          1943.0,
          1943.0,
          1944.0,
          1948.0,
          1947.0,
          1940.0,
          1939.0,
          1939.0,
          1943.0,
          1941.0,
          1940.0,
          1941.0,
          1939.0,
          1945.0,
          1945.0,
          1940.0,
          1943.0,
          1943.0,
          1945.0,
          1944.0,
          1942.0,
          1938.0,
          1937.0,
          1940.0,
          1942.0,
          1943.0,
          1944.0,
          1946.0,
          1944.0,
          1943.0,
          1945.0,
          1945.0,
          1941.0,
          1941.0,
          1941.0,
          1945.0,
          1941.0,
          1939.0,
          1940.0,
          1945.0,
          1950.0,
          1947.0,
          1941.0,
          1942.0,
          1943.0,
          1943.0,
          1941.0,
          1943.0,
          1941.0,
          1942.0,
          1941.0,
          1939.0,
          1938.0,
          1938.0,
          1938.0,
          1940.0,
          1937.0,
          1941.0,
          1940.0,
          1940.0,
          1940.0,
          1939.0,
          1938.0,
          1940.0,
          1940.0,
          1945.0,
          1942.0,
          1941.0,
          1940.0,
          1940.0,
          1940.0,
          1944.0,
          1945.0,
          1942.0,
          1943.0,
          1943.0,
          1942.0,
          1943.0,
          1944.0,
          1943.0,
          1945.0,
          1944.0,
          1945.0,
          1946.0,
          1945.0,
          1943.0,
          1942.0,
          1941.0,
          1937.0,
          1940.0,
          1940.0,
          1941.0,
          1942.0,
          1940.0,
          1941.0,
          1941.0,
          1940.0,
          1938.0,
          1939.0,
          1943.0,
          1944.0,
          1941.0,
          1939.0,
          1938.0,
          1940.0,
          1946.0,
          1945.0,
          1946.0,
          1943.0,
          1942.0,
          1944.0,
          1943.0,
          1943.0,
          1943.0,
          1943.0,
          1947.0,
          1946.0,
          1942.0,
          1945.0,
          1942.0,
          1941.0,
          1941.0,
          1942.0,
          1941.0,
          1943.0,
          1942.0,
          1942.0,
          1946.0,
          1946.0,
          1949.0,
          1951.0,
          1951.0,
          1947.0,
          1944.0
        ]
      },
      "slices": {}
    }
  },
  "dummy_trs": 0,
  "dvars_nstd": 78.66741385255027,
  "dvars_std": 1.0907411039597323,
  "dvars_vstd": 1.0261585630872483,
  "efc": 0.5789573680950468,
  "fber": 251.87022399902344,
  "fd_mean": 0.04387624918423181,
  "fd_num": 0,
  "fd_perc": 0.0,
  "fwhm_avg": 2.8831577081617836,
  "fwhm_x": 2.53487872346717,
  "fwhm_y": 2.9079035614304223,
  "fwhm_z": 3.2066908395877567,
  "gcor": 0.00146609,
  "gsr_x": -0.032361842691898346,
  "gsr_y": 0.06314259022474289,
  "provenance": {
    "md5sum": "43b70983868d3c10792f6774f59918b8",
    "settings": {
      "fd_thres": 0.2,
      "testing": false
    },
    "software": "mriqc",
    "version": "23.0.1",
    "webapi_port": null,
    "webapi_url": "https://mriqc.nimh.nih.gov/api/v1"
  },
  "size_t": 150,
  "size_x": 188,
  "size_y": 188,
  "size_z": 46,
  "snr": 2.0990753424602775,
  "spacing_tr": 2.5999999046325684,
  "spacing_x": 1.0957447290420532,
  "spacing_y": 1.0957447290420532,
  "spacing_z": 1.100000023841858,
  "summary_bg_k": 26.702977739098596,
  "summary_bg_mad": 29.523553007341086,
  "summary_bg_mean": 89.33053588867188,
  "summary_bg_median": 55.6400032043457,
  "summary_bg_n": 1031141.0,
  "summary_bg_p05": 31.84000015258789,
  "summary_bg_p95": 265.5466613769531,
