{
  "aor": 0.000636,
  "aqi": 0.016825406,
  "bids_meta": {
    "AcquisitionMatrixPE": 188,
    "AcquisitionNumber": 1,
    "AcquisitionTime": "18:59:21.012500",
    "BandwidthPerPixelPhaseEncode": 19.46,
    "BaseResolution": 188,
    "ConversionSoftware": "dcm2niix",
    "ConversionSoftwareVersion": "v1.0.20180606 GCC4.8.5",
    "DelayTime": 1.2,
    "DerivedVendorReportedEchoSpacing": 0.000820013,
    "DeviceSerialNumber": "18930",
    "DwellTime": 1.9e-06,
    "EchoTime": 0.02,
    "EffectiveEchoSpacing": 0.000273338,
    "FlipAngle": 80,
    "ImageComments": "Unaliased_MB2_PE2",
    "ImageOrientationPatientDICOM": [
      0.999248,
      0.020497,
      -0.0329253,
      -0.0374194,
      0.286299,
      -0.957409
    ],
    "ImageType": [
      "ORIGINAL",
      "PRIMARY",
      "M",
      "MB",
      "ND",
      "MOSAIC"
    ],
    "InPlanePhaseEncodingDirectionDICOM": "COL",
    "InstitutionAddress": "Oxfordlaan_55_Maastricht_753AAF_Limburg_NL_6229_EV",
    "InstitutionName": "Scannexus",
    "InstitutionalDepartmentName": "MRI_7T",
    "MRAcquisitionType": "2D",
    "MagneticFieldStrength": 6.98,
    "Manufacturer": "Siemens",
    "ManufacturersModelName": "Investigational_Device_7T",
    "Modality": "MR",
    "MultibandAccelerationFactor": 2,
    "ParallelReductionFactorInPlane": 3,
    "PartialFourier": 0.75,
    "PatientPosition": "HFS",
    "PercentPhaseFOV": 100,
    "PhaseEncodingDirection": "j",
    "PhaseEncodingSteps": 141,
    "PhaseResolution": 1,
    "PixelBandwidth": 1400,
    "ProcedureStepDescription": "FeDem_Faruk",
    "ProtocolName": "cmrr_mbep2d_bold_AP_run4",
    "PulseSequenceDetails": "%CustomerSeq%_cmrr_mbep2d_bold",
    "ReceiveCoilName": "32Ch_Head_7T",
    "ReconMatrixPE": 188,
    "RepetitionTime": 2.6,
    "SAR": 0.0595268,
    "ScanOptions": "PFP_FS",
    "ScanningSequence": "EP",
    "SequenceName": "epfid2d1_188",
    "SequenceVariant": "SK_SS",
    "SeriesDescription": "cmrr_mbep2d_bold_AP_run4",
    "SeriesNumber": 15,
    "ShimSetting": [
      117,
      -256,
      552,
      270,
      8,
      -144,
      276,
      73
    ],
    "SliceThickness": 1.1,
    "SliceTiming": [
      0,
      0.7325,
      0.06,
      0.795,
      0.1225,
      0.855,
      0.1825,
      0.915,
      0.245,
      0.9775,
      0.305,
      1.0375,
      0.365,
      1.1,
      0.4275,
      1.16,
      0.4875,
      1.2225,
      0.55,
      1.2825,
      0.61,
      1.345,
      0.6725,
      0,
      0.7325,
      0.06,
      0.795,
      0.1225,
      0.855,
      0.1825,
      0.915,
      0.245,
      0.9775,
      0.305,
      1.0375,
      0.365,
      1.1,
      0.4275,
      1.16,
      0.4875,
      1.2225,
      0.55,
      1.2825,
      0.61,
      1.345,
      0.6725
    ],
    "SoftwareVersions": "syngo_MR_B17",
    "SpacingBetweenSlices": 1.1,
    "StationName": "MRC18930",
    "TaskName": "auditory",
    "TotalReadoutTime": 0.0511141,
    "TxRefAmp": 210,
    "dataset": "ds001942",
    "dcmmeta_affine": [
      [
        -1.09492027759552,
        -0.04100212827324867,
        0.011217254213988781,
        102.66847229003906
      ],
      [
        -0.02245943620800972,
        0.31371042132377625,
        -1.0537132024765015,
        22.232385635375977
      ],
      [
        -0.03607774153351784,
        1.0490763187408447,
        0.31553545594215393,
        -109.380859375
      ],
      [
        0.0,
        0.0,
        0.0,
        1.0
      ]
    ],
    "dcmmeta_reorient_transform": [
      [
        0.0,
        -1.0,
        0.0,
        187.0
      ],
      [
        1.0,
        0.0,
        0.0,
        0.0
      ],
      [
        0.0,
        0.0,
        1.0,
        0.0
      ],
      [
        0.0,
        0.0,
        0.0,
        1.0
      ]
    ],
    "dcmmeta_shape": [
      188,
      188,
      46,
      150
    ],
    "dcmmeta_slice_dim": 2,
    "dcmmeta_version": 0.6,
    "global": {
      "const": {
        "AcquisitionMatrix": [
          188,
          0,
          0,
          188
        ],
        "AngioFlag": "N",
        "BitsAllocated": 16,
        "BitsStored": 12,
        "Columns": 1316,
        "EchoNumbers": 1,
        "EchoTime": 20.0,
        "EchoTrainLength": 1,
        "FlipAngle": 80.0,
        "HighBit": 11,
        "ImageOrientationPatient": [
          0.99924761605585,
          0.02049696029164,
          -0.0329253158756,
          -0.0374194164785,
          0.28629882111884,
          -0.9574094068351
        ],
        "ImagePositionPatient": [
          -689.41092549423,
          -270.49603658848,
          698.82329381524
        ],
        "ImageType": [
          "ORIGINAL",
          "PRIMARY",
          "M",
          "MB",
          "ND",
          "MOSAIC"
        ],
        "ImagedNucleus": "1H",
        "ImagingFrequency": 297.205506,
        "InPlanePhaseEncodingDirection": "COL",
        "LargestImagePixelValue": 4095,
        "MRAcquisitionType": "2D",
        "MagneticFieldStrength": 6.98,
        "Manufacturer": "SIEMENS",
        "ManufacturerModelName": "Investigational_Device_7T",
        "Modality": "MR",
        "NumberOfAverages": 1.0,
        "NumberOfPhaseEncodingSteps": 141,
        "PercentPhaseFieldOfView": 100.0,
        "PercentSampling": 100.0,
        "PerformedProcedureStepStartTime": "181136.593000",
        "PhotometricInterpretation": "MONOCHROME2",
        "PixelBandwidth": 1400.0,
        "PixelRepresentation": 0,
        "PixelSpacing": [
          1.0957447290421,
          1.0957447290421
        ],
        "ProtocolName": "cmrr_mbep2d_bold_AP_run4",
        "RepetitionTime": 2600.0,
        "Rows": 1316,
        "SAR": 0.0595267930667,
        "SamplesPerPixel": 1,
        "ScanOptions": [
          "PFP",
          "FS"
        ],
        "ScanningSequence": "EP",
        "SequenceName": "epfid2d1_188",
        "SequenceVariant": [
          "SK",
          "SS"
        ],
        "SeriesDescription": "cmrr_mbep2d_bold_AP_run4",
        "SeriesNumber": 15,
        "SeriesTime": "185931.093000",
        "SliceLocation": -51.625853746699,
        "SliceThickness": 1.1000000238419,
        "SmallestImagePixelValue": 0,
        "SoftwareVersions": "syngo MR B17",
        "SpacingBetweenSlices": 1.1000000357126,
        "SpecificCharacterSet": "ISO_IR 100",
        "StudyID": "1",
        "StudyTime": "181136.484000",
        "TransmitCoilName": "32Ch_Head_7T",
        "VariableFlipAngleFlag": "N",
        "WindowCenterWidthExplanation": "Algo1",
        "dBdt": 0.0
      },
      "slices": {}
    },
    "modality": "bold",
    "run_id": 4,
    "session_id": "SES03",
    "subject_id": "S06",
    "task_id": "auditory",
    "time": {
      "samples": {
        "AcquisitionNumber": [
          1,
          2,
          3,
          4,
          5,
          6,
          7,
          8,
          9,
          10,
          11,
          12,
          13,
          14,
          15,
          16,
          17,
          18,
          19,
          20,
          21,
          22,
          23,
          24,
          25,
          26,
          27,
          28,
          29,
          30,
          31,
          32,
          33,
          34,
          35,
          36,
          37,
          38,
          39,
          40,
          41,
          42,
          43,
          44,
          45,
          46,
          47,
          48,
          49,
          50,
          51,
          52,
          53,
          54,
          55,
          56,
          57,
          58,
          59,
          60,
          61,
          62,
          63,
          64,
          65,
          66,
          67,
          68,
          69,
          70,
          71,
          72,
          73,
          74,
          75,
          76,
          77,
          78,
          79,
          80,
          81,
          82,
          83,
          84,
          85,
          86,
          87,
          88,
          89,
          90,
          91,
          92,
          93,
          94,
          95,
          96,
          97,
          98,
          99,
          100,
          101,
          102,
          103,
          104,
          105,
          106,
          107,
          108,
          109,
          110,
          111,
          112,
          113,
          114,
          115,
          116,
          117,
          118,
          119,
          120,
          121,
          122,
          123,
          124,
          125,
          126,
          127,
          128,
          129,
          130,
          131,
          132,
          133,
          134,
          135,
          136,
          137,
          138,
          139,
          140,
          141,
          142,
          143,
          144,
          145,
          146,
          147,
          148,
          149,
          150
        ],
        "AcquisitionTime": [
          "185921.012500",
          "185923.622500",
          "185926.232500",
          "185928.842500",
          "185931.455000",
          "185934.065000",
          "185936.675000",
          "185939.285000",
          "185941.895000",
          "185944.505000",
          "185947.117500",
          "185949.727500",
          "185952.337500",
          "185954.947500",
          "185957.557500",
          "190000.167500",
          "190002.780000",
          "190005.390000",
          "190008.000000",
          "190010.610000",
          "190013.220000",
          "190015.832500",
          "190018.442500",
          "190021.052500",
          "190023.662500",
          "190026.272500",
          "190028.882500",
          "190031.495000",
          "190034.105000",
          "190036.715000",
          "190039.325000",
          "190041.935000",
          "190044.545000",
          "190047.157500",
          "190049.767500",
          "190052.377500",
          "190054.987500",
          "190057.597500",
          "190100.210000",
          "190102.820000",
          "190105.430000",
          "190108.040000",
          "190110.650000",
          "190113.260000",
          "190115.872500",
          "190118.482500",
          "190121.092500",
          "190123.702500",
          "190126.312500",
          "190128.922500",
          "190131.535000",
          "190134.145000",
          "190136.755000",
          "190139.365000",
          "190141.975000",
          "190144.587500",
          "190147.197500",
          "190149.807500",
          "190152.417500",
          "190155.027500",
          "190157.637500",
          "190200.250000",
          "190202.860000",
          "190205.470000",
          "190208.080000",
          "190210.690000",
          "190213.300000",
          "190215.912500",
          "190218.522500",
          "190221.132500",
          "190223.742500",
          "190226.352500",
          "190228.965000",
          "190231.575000",
          "190234.185000",
          "190236.795000",
          "190239.405000",
          "190242.015000",
          "190244.627500",
          "190247.237500",
          "190249.847500",
          "190252.457500",
          "190255.067500",
          "190257.677500",
          "190300.290000",
          "190302.900000",
          "190305.510000",
          "190308.120000",
          "190310.730000",
          "190313.342500",
          "190315.952500",
          "190318.562500",
          "190321.172500",
          "190323.782500",
          "190326.392500",
          "190329.005000",
          "190331.615000",
          "190334.225000",
          "190336.835000",
          "190339.445000",
          "190342.055000",
          "190344.667500",
          "190347.277500",
          "190349.887500",
          "190352.497500",
          "190355.107500",
          "190357.720000",
          "190400.330000",
          "190402.940000",
          "190405.550000",
          "190408.160000",
          "190410.770000",
          "190413.382500",
          "190415.992500",
          "190418.602500",
          "190421.212500",
          "190423.822500",
          "190426.432500",
          "190429.045000",
          "190431.655000",
          "190434.265000",
          "190436.875000",
          "190439.485000",
          "190442.097500",
          "190444.707500",
          "190447.317500",
          "190449.927500",
          "190452.537500",
          "190455.147500",
          "190457.760000",
          "190500.370000",
          "190502.980000",
          "190505.590000",
          "190508.200000",
          "190510.810000",
          "190513.422500",
          "190516.032500",
          "190518.642500",
          "190521.252500",
          "190523.862500",
          "190526.475000",
          "190529.085000",
          "190531.695000",
          "190534.305000",
          "190536.915000",
          "190539.525000",
          "190542.137500",
          "190544.747500",
          "190547.357500",
          "190549.967500"
        ],
        "ContentTime": [
          "185931.093000",
          "185931.093000",
          "185932.078000",
          "185934.078000",
          "185936.578000",
          "185939.078000",
          "185941.578000",
          "185944.578000",
          "185947.078000",
          "185949.578000",
          "185952.078000",
          "185954.578000",
          "185957.578000",
          "190000.078000",
          "190002.578000",
          "190005.078000",
          "190007.578000",
          "190010.578000",
          "190013.078000",
          "190015.578000",
          "190018.078000",
          "190020.578000",
          "190023.578000",
          "190026.078000",
          "190028.578000",
          "190031.078000",
          "190033.578000",
          "190036.578000",
          "190039.078000",
          "190041.578000",
          "190044.078000",
          "190046.578000",
          "190049.578000",
          "190052.078000",
          "190054.578000",
          "190057.078000",
          "190059.578000",
          "190102.578000",
          "190105.078000",
          "190107.578000",
          "190110.078000",
          "190112.578000",
          "190115.578000",
          "190118.078000",
          "190120.578000",
          "190123.078000",
          "190125.578000",
          "190128.578000",
          "190131.078000",
          "190133.593000",
          "190136.078000",
          "190138.578000",
          "190141.578000",
          "190144.078000",
          "190146.578000",
          "190149.078000",
          "190151.578000",
          "190154.578000",
          "190157.078000",
          "190159.578000",
          "190202.078000",
          "190204.578000",
          "190207.578000",
          "190210.078000",
          "190212.578000",
          "190215.078000",
          "190217.578000",
          "190220.578000",
          "190223.078000",
          "190225.578000",
          "190228.078000",
          "190230.578000",
          "190233.578000",
          "190236.078000",
          "190238.578000",
          "190241.078000",
          "190243.578000",
          "190246.578000",
          "190249.078000",
          "190251.578000",
          "190254.078000",
          "190256.578000",
          "190259.578000",
          "190302.078000",
          "190304.578000",
          "190307.078000",
          "190309.578000",
          "190312.578000",
          "190315.078000",
          "190317.578000",
          "190320.078000",
          "190322.578000",
          "190325.578000",
          "190328.078000",
          "190330.578000",
          "190333.078000",
          "190335.578000",
          "190338.578000",
          "190341.078000",
          "190343.578000",
          "190346.078000",
          "190348.578000",
          "190351.578000",
          "190354.078000",
          "190356.578000",
          "190359.078000",
          "190401.578000",
          "190404.578000",
          "190407.078000",
          "190409.578000",
          "190412.078000",
          "190414.578000",
          "190417.578000",
          "190420.078000",
          "190422.578000",
          "190425.078000",
          "190427.578000",
          "190430.578000",
          "190433.078000",
          "190435.578000",
          "190438.078000",
          "190440.578000",
          "190443.578000",
          "190446.078000",
          "190448.578000",
          "190451.078000",
          "190453.578000",
          "190456.578000",
          "190459.078000",
          "190501.578000",
          "190504.078000",
          "190506.578000",
          "190509.578000",
          "190512.078000",
          "190514.578000",
          "190517.078000",
          "190519.578000",
          "190522.578000",
          "190525.078000",
          "190527.578000",
          "190530.078000",
          "190532.578000",
          "190535.578000",
          "190538.078000",
          "190540.578000",
          "190543.078000",
          "190545.578000",
          "190548.578000",
          "190551.078000",
          "190558.296000"
        ],
        "InstanceCreationTime": [
          "185931.093000",
          "185931.093000",
          "185932.078000",
          "185934.078000",
          "185936.578000",
          "185939.078000",
          "185941.578000",
          "185944.578000",
          "185947.078000",
          "185949.578000",
          "185952.078000",
          "185954.578000",
          "185957.578000",
          "190000.078000",
          "190002.578000",
          "190005.078000",
          "190007.578000",
          "190010.578000",
          "190013.078000",
          "190015.578000",
          "190018.078000",
          "190020.578000",
          "190023.578000",
          "190026.078000",
          "190028.578000",
          "190031.078000",
          "190033.578000",
          "190036.578000",
          "190039.078000",
          "190041.578000",
          "190044.078000",
          "190046.578000",
          "190049.578000",
          "190052.078000",
          "190054.578000",
          "190057.078000",
          "190059.578000",
          "190102.578000",
          "190105.078000",
          "190107.578000",
          "190110.078000",
          "190112.578000",
          "190115.578000",
          "190118.078000",
          "190120.578000",
          "190123.078000",
          "190125.578000",
          "190128.578000",
          "190131.078000",
          "190133.593000",
          "190136.078000",
          "190138.578000",
          "190141.578000",
          "190144.078000",
          "190146.578000",
          "190149.078000",
          "190151.578000",
          "190154.578000",
          "190157.078000",
          "190159.578000",
          "190202.078000",
          "190204.578000",
          "190207.578000",
          "190210.078000",
          "190212.578000",
          "190215.078000",
          "190217.578000",
          "190220.578000",
          "190223.078000",
          "190225.578000",
          "190228.078000",
          "190230.578000",
          "190233.578000",
          "190236.078000",
          "190238.578000",
          "190241.078000",
          "190243.578000",
          "190246.578000",
          "190249.078000",
          "190251.578000",
          "190254.078000",
          "190256.578000",
          "190259.578000",
          "190302.078000",
          "190304.578000",
          "190307.078000",
          "190309.578000",
          "190312.578000",
          "190315.078000",
          "190317.578000",
          "190320.078000",
          "190322.578000",
          "190325.578000",
          "190328.078000",
          "190330.578000",
          "190333.078000",
          "190335.578000",
          "190338.578000",
          "190341.078000",
          "190343.578000",
          "190346.078000",
          "190348.578000",
          "190351.578000",
          "190354.078000",
          "190356.578000",
          "190359.078000",
          "190401.578000",
          "190404.578000",
          "190407.078000",
          "190409.578000",
          "190412.078000",
          "190414.578000",
          "190417.578000",
          "190420.078000",
          "190422.578000",
          "190425.078000",
          "190427.578000",
          "190430.578000",
          "190433.078000",
          "190435.578000",
          "190438.078000",
          "190440.578000",
          "190443.578000",
          "190446.078000",
          "190448.578000",
          "190451.078000",
          "190453.578000",
          "190456.578000",
          "190459.078000",
          "190501.578000",
          "190504.078000",
          "190506.578000",
          "190509.578000",
          "190512.078000",
          "190514.578000",
          "190517.078000",
          "190519.578000",
          "190522.578000",
          "190525.078000",
          "190527.578000",
          "190530.078000",
          "190532.578000",
          "190535.578000",
          "190538.078000",
          "190540.578000",
          "190543.078000",
          "190545.578000",
          "190548.578000",
          "190551.078000",
          "190558.296000"
        ],
        "InstanceNumber": [
          1,
          2,
          3,
          4,
          5,
          6,
          7,
          8,
          9,
          10,
          11,
          12,
          13,
          14,
          15,
          16,
          17,
          18,
          19,
          20,
          21,
          22,
          23,
          24,
          25,
          26,
          27,
          28,
          29,
          30,
          31,
          32,
          33,
          34,
          35,
          36,
          37,
          38,
          39,
          40,
          41,
          42,
          43,
          44,
          45,
          46,
          47,
          48,
          49,
          50,
          51,
          52,
          53,
          54,
          55,
          56,
          57,
          58,
          59,
          60,
          61,
          62,
          63,
          64,
          65,
          66,
          67,
          68,
          69,
          70,
          71,
          72,
          73,
          74,
          75,
          76,
          77,
          78,
          79,
          80,
          81,
          82,
          83,
          84,
          85,
          86,
          87,
          88,
          89,
          90,
          91,
          92,
          93,
          94,
          95,
          96,
          97,
          98,
          99,
          100,
          101,
          102,
          103,
          104,
          105,
          106,
          107,
          108,
          109,
          110,
          111,
          112,
          113,
          114,
          115,
          116,
          117,
          118,
          119,
          120,
          121,
          122,
          123,
          124,
          125,
          126,
          127,
          128,
          129,
          130,
          131,
          132,
          133,
          134,
          135,
          136,
          137,
          138,
          139,
          140,
          141,
          142,
          143,
          144,
          145,
          146,
          147,
          148,
          149,
          150
        ],
        "WindowCenter": [
          866.0,
          865.0,
          865.0,
          865.0,
          865.0,
          864.0,
          865.0,
          865.0,
          865.0,
          865.0,
          865.0,
          865.0,
          864.0,
          864.0,
          864.0,
          864.0,
          864.0,
          864.0,
          864.0,
          864.0,
          864.0,
          863.0,
          862.0,
          862.0,
          861.0,
          863.0,
          864.0,
          863.0,
          864.0,
          863.0,
          863.0,
          862.0,
          862.0,
          861.0,
          862.0,
          864.0,
          862.0,
          861.0,
          861.0,
          862.0,
          863.0,
          863.0,
          865.0,
          866.0,
          864.0,
          861.0,
          860.0,
          860.0,
          859.0,
          859.0,
          861.0,
          863.0,
          863.0,
          862.0,
          861.0,
          861.0,
          861.0,
          861.0,
          861.0,
          861.0,
          861.0,
          860.0,
          861.0,
          861.0,
          862.0,
          862.0,
          864.0,
          864.0,
          862.0,
          860.0,
          860.0,
          860.0,
          861.0,
          860.0,
          862.0,
          862.0,
          860.0,
          860.0,
          861.0,
          863.0,
          861.0,
          859.0,
          859.0,
          858.0,
          859.0,
          860.0,
          862.0,
          863.0,
          860.0,
          859.0,
          859.0,
          858.0,
          859.0,
          858.0,
          858.0,
          860.0,
          861.0,
          860.0,
          859.0,
          861.0,
          861.0,
          859.0,
          858.0,
          857.0,
          857.0,
          857.0,
          859.0,
          861.0,
          862.0,
          860.0,
          858.0,
          859.0,
          858.0,
          858.0,
          858.0,
          859.0,
          860.0,
          860.0,
          860.0,
          861.0,
          862.0,
          863.0,
          862.0,
          859.0,
          858.0,
          857.0,
          857.0,
          858.0,
          859.0,
          859.0,
          860.0,
          860.0,
          861.0,
          861.0,
          861.0,
          861.0,
          861.0,
          861.0,
          863.0,
          862.0,
          861.0,
          861.0,
          861.0,
          860.0,
          860.0,
          860.0,
          860.0,
          860.0,
          862.0,
          862.0
        ],
        "WindowWidth": [
          1964.0,
          1960.0,
          1961.0,
          1961.0,
          1962.0,
          1960.0,
          1962.0,
          1961.0,
          1963.0,
          1961.0,
          1963.0,
          1961.0,
          1958.0,
          1957.0,
          1958.0,
          1958.0,
          1957.0,
          1959.0,
          1957.0,
          1960.0,
          1960.0,
          1955.0,
          1951.0,
          1952.0,
          1950.0,
          1955.0,
          1959.0,
          1956.0,
          1958.0,
          1957.0,
          1953.0,
          1951.0,
          1951.0,
          1950.0,
          1952.0,
          1958.0,
          1951.0,
          1948.0,
          1949.0,
          1952.0,
          1954.0,
          1955.0,
          1963.0,
          1966.0,
          1958.0,
          1949.0,
          1945.0,
          1943.0,
          1942.0,
          1943.0,
          1948.0,
          1955.0,
          1954.0,
          1951.0,
          1947.0,
          1947.0,
          1947.0,
          1948.0,
          1949.0,
          1949.0,
          1946.0,
          1945.0,
          1947.0,
          1950.0,
          1951.0,
          1953.0,
          1959.0,
          1959.0,
          1951.0,
          1944.0,
          1944.0,
          1946.0,
          1948.0,
          1947.0,
          1953.0,
          1953.0,
          1946.0,
          1944.0,
          1952.0,
          1956.0,
          1947.0,
          1942.0,
          1942.0,
          1940.0,
          1941.0,
          1945.0,
          1955.0,
          1958.0,
          1947.0,
          1944.0,
          1941.0,
          1940.0,
          1943.0,
          1939.0,
          1941.0,
          1947.0,
          1950.0,
          1946.0,
          1943.0,
          1949.0,
          1949.0,
          1944.0,
          1937.0,
          1936.0,
          1933.0,
          1934.0,
          1942.0,
          1951.0,
          1953.0,
          1943.0,
          1938.0,
          1941.0,
          1939.0,
          1938.0,
          1940.0,
          1944.0,
          1946.0,
          1945.0,
          1948.0,
          1951.0,
          1955.0,
          1958.0,
          1951.0,
          1940.0,
          1938.0,
          1935.0,
          1936.0,
          1939.0,
          1941.0,
          1943.0,
          1944.0,
          1945.0,
          1948.0,
          1948.0,
          1950.0,
          1948.0,
          1949.0,
          1951.0,
          1955.0,
          1952.0,
          1950.0,
          1950.0,
          1948.0,
          1946.0,
          1944.0,
          1945.0,
          1945.0,
          1948.0,
          1954.0,
          1956.0
        ]
      },
      "slices": {}
    }
  },
  "dummy_trs": 0,
  "dvars_nstd": 80.29262793630875,
  "dvars_std": 1.0796195666442956,
  "dvars_vstd": 1.010285900402685,
  "efc": 0.5791934817030848,
  "fber": 248.85137939453125,
  "fd_mean": 0.06513728915286787,
  "fd_num": 3,
  "fd_perc": 2.0,
  "fwhm_avg": 2.9705881375580234,
  "fwhm_x": 2.599875613812482,
  "fwhm_y": 3.002807052402186,
  "fwhm_z": 3.309081746459403,
  "gcor": 0.00588495,
  "gsr_x": -0.015043959952890873,
  "gsr_y": 0.05356782302260399,
  "provenance": {
    "md5sum": "65a2375fa400d1c2245e922a77f50f0c",
    "settings": {
      "fd_thres": 0.2,
      "testing": false
    },
    "software": "mriqc",
    "version": "23.0.1",
    "webapi_port": null,
    "webapi_url": "https://mriqc.nimh.nih.gov/api/v1"
  },
  "size_t": 150,
  "size_x": 188,
  "size_y": 188,
  "size_z": 46,
  "snr": 2.0718756377642387,
  "spacing_tr": 2.5999999046325684,
  "spacing_x": 1.0957447290420532,
  "spacing_y": 1.0957447290420532,
  "spacing_z": 1.100000023841858,
  "summary_bg_k": 35.82173580378029,
  "summary_bg_mad": 28.614221686022393,
  "summary_bg_mean": 81.7767562866211,
  "summary_bg_median": 55.02000045776367,
  "summary_bg_n": 1007461.0,
  "summary_bg_p05": 31.906667709350586,
  "summary_bg_p95": 223.5466766357422,
  "summary_bg_stdv": 77.38658142089844,
