{
  "aor": 0.0006680666666666667,
  "aqi": 0.012410760666666668,
  "bids_meta": {
    "AcquisitionMatrixPE": 188,
    "AcquisitionNumber": 1,
    "AcquisitionTime": "09:11:9.882500",
    "BandwidthPerPixelPhaseEncode": 19.46,
    "BaseResolution": 188,
    "CogAtlasID": "TODO",
    "ConversionSoftware": "dcm2niix",
    "ConversionSoftwareVersion": "v1.0.20180606 GCC4.8.5",
    "DelayTime": 1.2,
    "DerivedVendorReportedEchoSpacing": 0.000820013,
    "DeviceSerialNumber": "18930",
    "DwellTime": 1.9e-06,
    "EchoTime": 0.02,
    "EffectiveEchoSpacing": 0.000273338,
    "FlipAngle": 75,
    "ImageComments": "Unaliased_MB2_PE2",
    "ImageOrientationPatientDICOM": [
      0.997079,
      0.0533282,
      -0.0546808,
      -0.0647723,
      0.210966,
      -0.975345
    ],
    "ImageType": [
      "ORIGINAL",
      "PRIMARY",
      "M",
      "MB",
      "ND",
      "MOSAIC"
    ],
    "InPlanePhaseEncodingDirectionDICOM": "COL",
    "InstitutionAddress": "Oxfordlaan_55_Maastricht_12C0A2_Limburg_NL_6229_EV",
    "InstitutionName": "Scannexus",
    "InstitutionalDepartmentName": "MRI_7T",
    "MRAcquisitionType": "2D",
    "MagneticFieldStrength": 6.98,
    "Manufacturer": "Siemens",
    "ManufacturersModelName": "Investigational_Device_7T",
    "Modality": "MR",
    "MultibandAccelerationFactor": 2,
    "ParallelReductionFactorInPlane": 3,
    "PartialFourier": 0.75,
    "PatientPosition": "HFS",
    "PercentPhaseFOV": 100,
    "PhaseEncodingDirection": "j",
    "PhaseEncodingSteps": 141,
    "PhaseResolution": 1,
    "PixelBandwidth": 1400,
    "ProcedureStepDescription": "FeDem_Faruk",
    "ProtocolName": "cmrr_mbep2d_bold_AP_run2",
    "PulseSequenceDetails": "%CustomerSeq%_cmrr_mbep2d_bold",
    "ReceiveCoilName": "32Ch_Head_7T",
    "ReconMatrixPE": 188,
    "RepetitionTime": 2.6,
    "SAR": 0.0380002,
    "ScanOptions": "PFP_FS",
    "ScanningSequence": "EP",
    "SequenceName": "epfid2d1_188",
    "SequenceVariant": "SK_SS",
    "SeriesDescription": "cmrr_mbep2d_bold_AP_run2",
    "SeriesNumber": 14,
    "ShimSetting": [
      56,
      -76,
      427,
      415,
      -84,
      461,
      -48,
      47
    ],
    "SliceThickness": 1.1,
    "SliceTiming": [
      0,
      0.7325,
      0.06,
      0.7925,
      0.1225,
      0.855,
      0.1825,
      0.915,
      0.2425,
      0.9775,
      0.305,
      1.0375,
      0.365,
      1.1,
      0.4275,
      1.16,
      0.4875,
      1.2225,
      0.55,
      1.2825,
      0.61,
      1.3425,
      0.6725,
      0,
      0.7325,
      0.06,
      0.7925,
      0.1225,
      0.855,
      0.1825,
      0.915,
      0.2425,
      0.9775,
      0.305,
      1.0375,
      0.365,
      1.1,
      0.4275,
      1.16,
      0.4875,
      1.2225,
      0.55,
      1.2825,
      0.61,
      1.3425,
      0.6725
    ],
    "SoftwareVersions": "syngo_MR_B17",
    "SpacingBetweenSlices": 1.1,
    "StationName": "MRC18930",
    "TaskName": "auditory",
    "TotalReadoutTime": 0.0511141,
    "TxRefAmp": 170,
    "dataset": "ds001942",
    "dcmmeta_affine": [
      [
        -1.0925438404083252,
        -0.07097391039133072,
        0.04452543705701828,
        105.0876693725586
      ],
      [
        -0.0584341399371624,
        0.2311643660068512,
        -1.0736415386199951,
        29.283571243286133
      ],
      [
        -0.05991622060537338,
        1.068729281425476,
        0.23518379032611847,
        -111.51782989501953
      ],
      [
        0.0,
        0.0,
        0.0,
        1.0
      ]
    ],
    "dcmmeta_reorient_transform": [
      [
        0.0,
        -1.0,
        0.0,
        187.0
      ],
      [
        1.0,
        0.0,
        0.0,
        0.0
      ],
      [
        0.0,
        0.0,
        1.0,
        0.0
      ],
      [
        0.0,
        0.0,
        0.0,
        1.0
      ]
    ],
    "dcmmeta_shape": [
      188,
      188,
      46,
      150
    ],
    "dcmmeta_slice_dim": 2,
    "dcmmeta_version": 0.6,
    "global": {
      "const": {
        "AcquisitionMatrix": [
          188,
          0,
          0,
          188
        ],
        "AngioFlag": "N",
        "BitsAllocated": 16,
        "BitsStored": 12,
        "Columns": 1316,
        "EchoNumbers": 1,
        "EchoTime": 20.0,
        "EchoTrainLength": 1,
        "FlipAngle": 75.0,
        "HighBit": 11,
        "ImageOrientationPatient": [
          0.9970787865409,
          0.05332824067929,
          -0.0546808209171,
          -0.0647723057413,
          0.21096552709947,
          -0.9753451157332
        ],
        "ImagePositionPatient": [
          -667.98097657726,
          -235.84486219037,
          724.89059814474
        ],
        "ImageType": [
          "ORIGINAL",
          "PRIMARY",
          "M",
          "MB",
          "ND",
          "MOSAIC"
        ],
        "ImagedNucleus": "1H",
        "ImagingFrequency": 297.205702,
        "InPlanePhaseEncodingDirection": "COL",
        "LargestImagePixelValue": 4095,
        "MRAcquisitionType": "2D",
        "MagneticFieldStrength": 6.98,
        "Manufacturer": "SIEMENS",
        "ManufacturerModelName": "Investigational_Device_7T",
        "Modality": "MR",
        "NumberOfAverages": 1.0,
        "NumberOfPhaseEncodingSteps": 141,
        "PercentPhaseFieldOfView": 100.0,
        "PercentSampling": 100.0,
        "PerformedProcedureStepStartTime": "081242.234000",
        "PhotometricInterpretation": "MONOCHROME2",
        "PixelBandwidth": 1400.0,
        "PixelRepresentation": 0,
        "PixelSpacing": [
          1.0957447290421,
          1.0957447290421
        ],
        "ProtocolName": "cmrr_mbep2d_bold_AP_run2",
        "RepetitionTime": 2600.0,
        "Rows": 1316,
        "SAR": 0.03800023540595,
        "SamplesPerPixel": 1,
        "ScanOptions": [
          "PFP",
          "FS"
        ],
        "ScanningSequence": "EP",
        "SequenceName": "epfid2d1_188",
        "SequenceVariant": [
          "SK",
          "SS"
        ],
        "SeriesDescription": "cmrr_mbep2d_bold_AP_run2",
        "SeriesNumber": 14,
        "SeriesTime": "091119.062000",
        "SliceLocation": -48.171062132454,
        "SliceThickness": 1.1000000238419,
        "SmallestImagePixelValue": 0,
        "SoftwareVersions": "syngo MR B17",
        "SpacingBetweenSlices": 1.0999999909105,
        "SpecificCharacterSet": "ISO_IR 100",
        "StudyID": "1",
        "StudyTime": "081242.187000",
        "TransmitCoilName": "32Ch_Head_7T",
        "VariableFlipAngleFlag": "N",
        "WindowCenterWidthExplanation": "Algo1",
        "dBdt": 0.0
      },
      "slices": {}
    },
    "modality": "bold",
    "run_id": 1,
    "session_id": "SES02",
    "subject_id": "S01",
    "task_id": "auditory",
    "time": {
      "samples": {
        "AcquisitionNumber": [
          1,
          2,
          3,
          4,
          5,
          6,
          7,
          8,
          9,
          10,
          11,
          12,
          13,
          14,
          15,
          16,
          17,
          18,
          19,
          20,
          21,
          22,
          23,
          24,
          25,
          26,
          27,
          28,
          29,
          30,
          31,
          32,
          33,
          34,
          35,
          36,
          37,
          38,
          39,
          40,
          41,
          42,
          43,
          44,
          45,
          46,
          47,
          48,
          49,
          50,
          51,
          52,
          53,
          54,
          55,
          56,
          57,
          58,
          59,
          60,
          61,
          62,
          63,
          64,
          65,
          66,
          67,
          68,
          69,
          70,
          71,
          72,
          73,
          74,
          75,
          76,
          77,
          78,
          79,
          80,
          81,
          82,
          83,
          84,
          85,
          86,
          87,
          88,
          89,
          90,
          91,
          92,
          93,
          94,
          95,
          96,
          97,
          98,
          99,
          100,
          101,
          102,
          103,
          104,
          105,
          106,
          107,
          108,
          109,
          110,
          111,
          112,
          113,
          114,
          115,
          116,
          117,
          118,
          119,
          120,
          121,
          122,
          123,
          124,
          125,
          126,
          127,
          128,
          129,
          130,
          131,
          132,
          133,
          134,
          135,
          136,
          137,
          138,
          139,
          140,
          141,
          142,
          143,
          144,
          145,
          146,
          147,
          148,
          149,
          150
        ],
        "AcquisitionTime": [
          "091109.882500",
          "091112.492500",
          "091115.102500",
          "091117.712500",
          "091120.322500",
          "091122.935000",
          "091125.545000",
          "091128.155000",
          "091130.765000",
          "091133.375000",
          "091135.985000",
          "091138.597500",
          "091141.207500",
          "091143.817500",
          "091146.427500",
          "091149.037500",
          "091151.650000",
          "091154.260000",
          "091156.870000",
          "091159.480000",
          "091202.090000",
          "091204.700000",
          "091207.312500",
          "091209.922500",
          "091212.532500",
          "091215.142500",
          "091217.752500",
          "091220.365000",
          "091222.975000",
          "091225.585000",
          "091228.195000",
          "091230.805000",
          "091233.415000",
          "091236.027500",
          "091238.637500",
          "091241.247500",
          "091243.857500",
          "091246.467500",
          "091249.077500",
          "091251.690000",
          "091254.300000",
          "091256.910000",
          "091259.520000",
          "091302.130000",
          "091304.742500",
          "091307.352500",
          "091309.962500",
          "091312.572500",
          "091315.182500",
          "091317.792500",
          "091320.405000",
          "091323.015000",
          "091325.625000",
          "091328.235000",
          "091330.845000",
          "091333.455000",
          "091336.067500",
          "091338.677500",
          "091341.287500",
          "091343.897500",
          "091346.507500",
          "091349.120000",
          "091351.730000",
          "091354.340000",
          "091356.950000",
          "091359.560000",
          "091402.170000",
          "091404.782500",
          "091407.392500",
          "091410.002500",
          "091412.612500",
          "091415.222500",
          "091417.832500",
          "091420.445000",
          "091423.055000",
          "091425.665000",
          "091428.275000",
          "091430.885000",
          "091433.497500",
          "091436.107500",
          "091438.717500",
          "091441.327500",
          "091443.937500",
          "091446.547500",
          "091449.160000",
          "091451.770000",
          "091454.380000",
          "091456.990000",
          "091459.600000",
          "091502.210000",
          "091504.822500",
          "091507.432500",
          "091510.042500",
          "091512.652500",
          "091515.262500",
          "091517.875000",
          "091520.485000",
          "091523.095000",
          "091525.705000",
          "091528.315000",
          "091530.925000",
          "091533.537500",
          "091536.147500",
          "091538.757500",
          "091541.367500",
          "091543.977500",
          "091546.587500",
          "091549.200000",
          "091551.810000",
          "091554.420000",
          "091557.030000",
          "091559.640000",
          "091602.252500",
          "091604.862500",
          "091607.472500",
          "091610.082500",
          "091612.692500",
          "091615.302500",
          "091617.915000",
          "091620.525000",
          "091623.135000",
          "091625.745000",
          "091628.355000",
          "091630.965000",
          "091633.577500",
          "091636.187500",
          "091638.797500",
          "091641.407500",
          "091644.017500",
          "091646.630000",
          "091649.240000",
          "091651.850000",
          "091654.460000",
          "091657.070000",
          "091659.680000",
          "091702.292500",
          "091704.902500",
          "091707.512500",
          "091710.122500",
          "091712.732500",
          "091715.342500",
          "091717.955000",
          "091720.565000",
          "091723.175000",
          "091725.785000",
          "091728.395000",
          "091731.007500",
          "091733.617500",
          "091736.227500",
          "091738.837500"
        ],
        "ContentTime": [
          "091119.062000",
          "091120.062000",
          "091120.062000",
          "091122.562000",
          "091125.062000",
          "091127.562000",
          "091130.062000",
          "091132.562000",
          "091135.562000",
          "091138.062000",
          "091140.562000",
          "091143.062000",
          "091145.562000",
          "091148.562000",
          "091151.062000",
          "091153.562000",
          "091156.062000",
          "091158.562000",
          "091201.562000",
          "091204.062000",
          "091206.562000",
          "091209.062000",
          "091211.562000",
          "091214.562000",
          "091217.062000",
          "091219.562000",
          "091222.062000",
          "091224.562000",
          "091227.562000",
          "091230.062000",
          "091232.562000",
          "091235.062000",
          "091237.562000",
          "091240.562000",
          "091243.062000",
          "091245.562000",
          "091248.062000",
          "091250.562000",
          "091253.562000",
          "091256.062000",
          "091258.562000",
          "091301.062000",
          "091303.562000",
          "091306.562000",
          "091309.062000",
          "091311.562000",
          "091314.062000",
          "091316.562000",
          "091319.562000",
          "091322.062000",
          "091324.562000",
          "091327.062000",
          "091329.562000",
          "091332.562000",
          "091335.062000",
          "091337.562000",
          "091340.062000",
          "091342.562000",
          "091345.562000",
          "091348.062000",
          "091350.562000",
          "091353.062000",
          "091355.562000",
          "091358.562000",
          "091401.062000",
          "091403.562000",
          "091406.062000",
          "091408.562000",
          "091411.562000",
          "091414.062000",
          "091416.562000",
          "091419.062000",
          "091421.562000",
          "091424.562000",
          "091427.062000",
          "091429.562000",
          "091432.062000",
          "091434.562000",
          "091437.062000",
          "091440.062000",
          "091442.562000",
          "091445.062000",
          "091447.562000",
          "091450.562000",
          "091453.062000",
          "091455.562000",
          "091458.062000",
          "091500.562000",
          "091503.562000",
          "091506.062000",
          "091508.562000",
          "091511.062000",
          "091513.562000",
          "091516.562000",
          "091519.062000",
          "091521.562000",
          "091524.062000",
          "091526.562000",
          "091529.562000",
          "091532.062000",
          "091534.562000",
          "091537.062000",
          "091539.562000",
          "091542.562000",
          "091545.062000",
          "091547.562000",
          "091550.062000",
          "091552.562000",
          "091555.562000",
          "091558.062000",
          "091600.562000",
          "091603.062000",
          "091605.562000",
          "091608.562000",
          "091611.062000",
          "091613.562000",
          "091616.062000",
          "091618.562000",
          "091621.562000",
          "091624.062000",
          "091626.562000",
          "091629.062000",
          "091631.562000",
          "091634.562000",
          "091637.062000",
          "091639.562000",
          "091642.062000",
          "091644.562000",
          "091647.562000",
          "091650.062000",
          "091652.562000",
          "091655.062000",
          "091657.562000",
          "091700.562000",
          "091703.062000",
          "091705.562000",
          "091708.062000",
          "091710.562000",
          "091713.562000",
          "091716.062000",
          "091718.562000",
          "091721.062000",
          "091723.562000",
          "091726.562000",
          "091729.062000",
          "091731.562000",
          "091734.062000",
          "091736.562000",
          "091739.562000",
          "091741.640000"
        ],
        "InstanceCreationTime": [
          "091119.062000",
          "091120.062000",
          "091120.062000",
          "091122.562000",
          "091125.062000",
          "091127.562000",
          "091130.062000",
          "091132.562000",
          "091135.562000",
          "091138.062000",
          "091140.562000",
          "091143.062000",
          "091145.562000",
          "091148.562000",
          "091151.062000",
          "091153.562000",
          "091156.062000",
          "091158.562000",
          "091201.562000",
          "091204.062000",
          "091206.562000",
          "091209.062000",
          "091211.562000",
          "091214.562000",
          "091217.062000",
          "091219.562000",
          "091222.062000",
          "091224.562000",
          "091227.562000",
          "091230.062000",
          "091232.562000",
          "091235.062000",
          "091237.562000",
          "091240.562000",
          "091243.062000",
          "091245.562000",
          "091248.062000",
          "091250.562000",
          "091253.562000",
          "091256.062000",
          "091258.562000",
          "091301.062000",
          "091303.562000",
          "091306.562000",
          "091309.062000",
          "091311.562000",
          "091314.062000",
          "091316.562000",
          "091319.562000",
          "091322.062000",
          "091324.562000",
          "091327.062000",
          "091329.562000",
          "091332.562000",
          "091335.062000",
          "091337.562000",
          "091340.062000",
          "091342.562000",
          "091345.562000",
          "091348.062000",
          "091350.562000",
          "091353.062000",
          "091355.562000",
          "091358.562000",
          "091401.062000",
          "091403.562000",
          "091406.062000",
          "091408.562000",
          "091411.562000",
          "091414.062000",
          "091416.562000",
          "091419.062000",
          "091421.562000",
          "091424.562000",
          "091427.062000",
          "091429.562000",
          "091432.062000",
          "091434.562000",
          "091437.062000",
          "091440.062000",
          "091442.562000",
          "091445.062000",
          "091447.562000",
          "091450.562000",
          "091453.062000",
          "091455.562000",
          "091458.062000",
          "091500.562000",
          "091503.562000",
          "091506.062000",
          "091508.562000",
          "091511.062000",
          "091513.562000",
          "091516.562000",
          "091519.062000",
          "091521.562000",
          "091524.062000",
          "091526.562000",
          "091529.562000",
          "091532.062000",
          "091534.562000",
          "091537.062000",
          "091539.562000",
          "091542.562000",
          "091545.062000",
          "091547.562000",
          "091550.062000",
          "091552.562000",
          "091555.562000",
          "091558.062000",
          "091600.562000",
          "091603.062000",
          "091605.562000",
          "091608.562000",
          "091611.062000",
          "091613.562000",
          "091616.062000",
          "091618.562000",
          "091621.562000",
          "091624.062000",
          "091626.562000",
          "091629.062000",
          "091631.562000",
          "091634.562000",
          "091637.062000",
          "091639.562000",
          "091642.062000",
          "091644.562000",
          "091647.562000",
          "091650.062000",
          "091652.562000",
          "091655.062000",
          "091657.562000",
          "091700.562000",
          "091703.062000",
          "091705.562000",
          "091708.062000",
          "091710.562000",
          "091713.562000",
          "091716.062000",
          "091718.562000",
          "091721.062000",
          "091723.562000",
          "091726.562000",
          "091729.062000",
          "091731.562000",
          "091734.062000",
          "091736.562000",
          "091739.562000",
          "091741.640000"
        ],
        "InstanceNumber": [
          1,
          2,
          3,
          4,
          5,
          6,
          7,
          8,
          9,
          10,
          11,
          12,
          13,
          14,
          15,
          16,
          17,
          18,
          19,
          20,
          21,
          22,
          23,
          24,
          25,
          26,
          27,
          28,
          29,
          30,
          31,
          32,
          33,
          34,
          35,
          36,
          37,
          38,
          39,
          40,
          41,
          42,
          43,
          44,
          45,
          46,
          47,
          48,
          49,
          50,
          51,
          52,
          53,
          54,
          55,
          56,
          57,
          58,
          59,
          60,
          61,
          62,
          63,
          64,
          65,
          66,
          67,
          68,
          69,
          70,
          71,
          72,
          73,
          74,
          75,
          76,
          77,
          78,
          79,
          80,
          81,
          82,
          83,
          84,
          85,
          86,
          87,
          88,
          89,
          90,
          91,
          92,
          93,
          94,
          95,
          96,
          97,
          98,
          99,
          100,
          101,
          102,
          103,
          104,
          105,
          106,
          107,
          108,
          109,
          110,
          111,
          112,
          113,
          114,
          115,
          116,
          117,
          118,
          119,
          120,
          121,
          122,
          123,
          124,
          125,
          126,
          127,
          128,
          129,
          130,
          131,
          132,
          133,
          134,
          135,
          136,
          137,
          138,
          139,
          140,
          141,
          142,
          143,
          144,
          145,
          146,
          147,
          148,
          149,
          150
        ],
        "WindowCenter": [
          801.0,
          799.0,
          799.0,
          798.0,
          798.0,
          801.0,
          800.0,
          799.0,
          800.0,
          799.0,
          800.0,
          799.0,
          800.0,
          799.0,
          798.0,
          799.0,
          800.0,
          798.0,
          799.0,
          799.0,
          798.0,
          798.0,
          799.0,
          800.0,
          801.0,
          799.0,
          799.0,
          799.0,
          799.0,
          799.0,
          798.0,
          798.0,
          799.0,
          799.0,
          798.0,
          798.0,
          799.0,
          799.0,
          798.0,
          799.0,
          799.0,
          799.0,
          799.0,
          799.0,
          799.0,
          800.0,
          801.0,
          801.0,
          799.0,
          799.0,
          799.0,
          799.0,
          798.0,
          798.0,
          799.0,
          799.0,
          798.0,
          798.0,
          798.0,
          799.0,
          798.0,
          798.0,
          800.0,
          798.0,
          800.0,
          801.0,
          799.0,
          799.0,
          800.0,
          799.0,
          799.0,
          799.0,
          799.0,
          799.0,
          799.0,
          799.0,
          800.0,
          800.0,
          800.0,
          800.0,
          799.0,
          799.0,
          800.0,
          800.0,
          801.0,
          799.0,
          799.0,
          799.0,
          799.0,
          800.0,
          799.0,
          799.0,
          800.0,
          799.0,
          800.0,
          800.0,
          799.0,
          799.0,
          802.0,
          800.0,
          800.0,
          801.0,
          799.0,
          798.0,
          798.0,
          799.0,
          798.0,
          797.0,
          797.0,
          797.0,
          798.0,
          799.0,
          798.0,
          798.0,
          800.0,
          799.0,
          799.0,
          800.0,
          799.0,
          799.0,
          799.0,
          798.0,
          799.0,
          799.0,
          800.0,
          799.0,
          798.0,
          799.0,
          799.0,
          799.0,
          801.0,
          799.0,
          799.0,
          799.0,
          800.0,
          799.0,
          799.0,
          798.0,
          799.0,
          799.0,
          800.0,
          800.0,
          799.0,
          798.0,
          800.0,
          800.0,
          799.0,
          799.0,
          799.0,
          799.0
        ],
        "WindowWidth": [
          1795.0,
          1789.0,
          1788.0,
          1785.0,
          1786.0,
          1793.0,
          1791.0,
          1788.0,
          1790.0,
          1787.0,
          1789.0,
          1786.0,
          1791.0,
          1788.0,
          1784.0,
          1789.0,
          1789.0,
          1786.0,
          1788.0,
          1789.0,
          1786.0,
          1786.0,
          1787.0,
          1791.0,
          1793.0,
          1788.0,
          1786.0,
          1786.0,
          1787.0,
          1788.0,
          1785.0,
          1783.0,
          1787.0,
          1788.0,
          1785.0,
          1785.0,
          1788.0,
          1788.0,
          1786.0,
          1787.0,
          1789.0,
          1787.0,
          1788.0,
          1788.0,
          1789.0,
          1791.0,
          1795.0,
          1792.0,
          1788.0,
          1788.0,
          1789.0,
          1787.0,
          1785.0,
          1786.0,
          1787.0,
          1789.0,
          1783.0,
          1786.0,
          1785.0,
          1787.0,
          1784.0,
          1786.0,
          1790.0,
          1785.0,
          1791.0,
          1794.0,
          1786.0,
          1788.0,
          1790.0,
          1788.0,
          1786.0,
          1787.0,
          1788.0,
          1787.0,
          1789.0,
          1786.0,
          1790.0,
          1791.0,
          1790.0,
          1790.0,
          1789.0,
          1788.0,
          1792.0,
          1791.0,
          1793.0,
          1788.0,
          1787.0,
          1788.0,
          1787.0,
          1791.0,
          1789.0,
          1789.0,
          1791.0,
          1788.0,
          1791.0,
          1790.0,
          1787.0,
          1789.0,
          1798.0,
          1792.0,
          1789.0,
          1795.0,
          1788.0,
          1784.0,
          1786.0,
          1786.0,
          1785.0,
          1780.0,
          1780.0,
          1782.0,
          1784.0,
          1787.0,
          1784.0,
          1785.0,
          1790.0,
          1786.0,
          1788.0,
          1792.0,
          1787.0,
          1789.0,
          1788.0,
          1784.0,
          1786.0,
          1786.0,
          1790.0,
          1787.0,
          1786.0,
          1789.0,
          1788.0,
          1789.0,
          1793.0,
          1788.0,
          1789.0,
          1788.0,
          1790.0,
          1788.0,
          1786.0,
          1785.0,
          1786.0,
          1787.0,
          1790.0,
          1791.0,
          1789.0,
          1785.0,
          1790.0,
          1791.0,
          1788.0,
          1788.0,
          1786.0,
          1786.0
        ]
      },
      "slices": {}
    }
  },
  "dummy_trs": 0,
  "dvars_nstd": 76.60356047993291,
  "dvars_std": 1.0531864977181207,
  "dvars_vstd": 1.018793111409396,
  "efc": 0.5567891974983245,
  "fber": 318.5971374511719,
  "fd_mean": 0.057720993833029505,
  "fd_num": 0,
  "fd_perc": 0.0,
  "fwhm_avg": 3.016178739585366,
  "fwhm_x": 2.7953956052134883,
  "fwhm_y": 2.821149778838098,
  "fwhm_z": 3.4319908347045107,
  "gcor": 0.00153099,
  "gsr_x": -0.0005564886960200965,
  "gsr_y": 0.03527993708848953,
  "provenance": {
    "md5sum": "09387a03ab1f01e0baf122813182748e",
    "settings": {
      "fd_thres": 0.2,
      "testing": false
    },
    "software": "mriqc",
    "version": "22.0.0rc1",
    "webapi_port": null,
    "webapi_url": "https://mriqc.nimh.nih.gov/api/v1"
  },
  "size_t": 150,
  "size_x": 188,
  "size_y": 188,
  "size_z": 46,
  "snr": 1.9634518236201626,
  "spacing_tr": 2.5999999046325684,
  "spacing_x": 1.0957447290420532,
  "spacing_y": 1.0957447290420532,
  "spacing_z": 1.100000023841858,
  "summary_bg_k": 74.41905414089914,
  "summary_bg_mad": 19.98547722677408,
  "summary_bg_mean": 68.9852066040039,
  "summary_bg_median": 42.68000030517578,
  "summary_bg_n": 1046044.0,
  "summary_bg_p05": 26.513334274291992,
  "summary_bg_p95": 190.4666748046875,
