{
  "aor": 0.0005986666666666666,
  "aqi": 0.013597770666666665,
  "bids_meta": {
    "AcquisitionMatrixPE": 188,
    "AcquisitionNumber": 1,
    "AcquisitionTime": "10:33:35.875000",
    "BandwidthPerPixelPhaseEncode": 19.46,
    "BaseResolution": 188,
    "ConversionSoftware": "dcm2niix",
    "ConversionSoftwareVersion": "v1.0.20180606 GCC4.8.5",
    "DelayTime": 1.2,
    "DerivedVendorReportedEchoSpacing": 0.000820013,
    "DeviceSerialNumber": "18930",
    "DwellTime": 1.9e-06,
    "EchoTime": 0.02,
    "EffectiveEchoSpacing": 0.000273338,
    "FlipAngle": 75,
    "ImageComments": "Unaliased_MB2_PE2",
    "ImageOrientationPatientDICOM": [
      0.997079,
      0.0533282,
      -0.0546808,
      -0.0647723,
      0.210966,
      -0.975345
    ],
    "ImageType": [
      "ORIGINAL",
      "PRIMARY",
      "M",
      "MB",
      "ND",
      "MOSAIC"
    ],
    "InPlanePhaseEncodingDirectionDICOM": "COL",
    "InstitutionAddress": "Oxfordlaan_55_Maastricht_12C0A2_Limburg_NL_6229_EV",
    "InstitutionName": "Scannexus",
    "InstitutionalDepartmentName": "MRI_7T",
    "MRAcquisitionType": "2D",
    "MagneticFieldStrength": 6.98,
    "Manufacturer": "Siemens",
    "ManufacturersModelName": "Investigational_Device_7T",
    "Modality": "MR",
    "MultibandAccelerationFactor": 2,
    "ParallelReductionFactorInPlane": 3,
    "PartialFourier": 0.75,
    "PatientPosition": "HFS",
    "PercentPhaseFOV": 100,
    "PhaseEncodingDirection": "j",
    "PhaseEncodingSteps": 141,
    "PhaseResolution": 1,
    "PixelBandwidth": 1400,
    "ProcedureStepDescription": "FeDem_Faruk",
    "ProtocolName": "cmrr_mbep2d_bold_AP_run10",
    "PulseSequenceDetails": "%CustomerSeq%_cmrr_mbep2d_bold",
    "ReceiveCoilName": "32Ch_Head_7T",
    "ReconMatrixPE": 188,
    "RepetitionTime": 2.6,
    "SAR": 0.0380304,
    "ScanOptions": "PFP_FS",
    "ScanningSequence": "EP",
    "SequenceName": "epfid2d1_188",
    "SequenceVariant": "SK_SS",
    "SeriesDescription": "cmrr_mbep2d_bold_AP_run10",
    "SeriesNumber": 38,
    "ShimSetting": [
      56,
      -76,
      427,
      415,
      -84,
      461,
      -48,
      47
    ],
    "SliceThickness": 1.1,
    "SliceTiming": [
      0,
      0.7325,
      0.0625,
      0.795,
      0.1225,
      0.855,
      0.1825,
      0.9175,
      0.245,
      0.9775,
      0.305,
      1.04,
      0.3675,
      1.1,
      0.4275,
      1.16,
      0.49,
      1.2225,
      0.55,
      1.2825,
      0.61,
      1.345,
      0.6725,
      0,
      0.7325,
      0.0625,
      0.795,
      0.1225,
      0.855,
      0.1825,
      0.9175,
      0.245,
      0.9775,
      0.305,
      1.04,
      0.3675,
      1.1,
      0.4275,
      1.16,
      0.49,
      1.2225,
      0.55,
      1.2825,
      0.61,
      1.345,
      0.6725
    ],
    "SoftwareVersions": "syngo_MR_B17",
    "SpacingBetweenSlices": 1.1,
    "StationName": "MRC18930",
    "TaskName": "auditory",
    "TotalReadoutTime": 0.0511141,
    "TxRefAmp": 170,
    "dataset": "ds001942",
    "dcmmeta_affine": [
      [
        -1.0925438404083252,
        -0.07097391039133072,
        0.04452543705701828,
        105.0876693725586
      ],
      [
        -0.0584341399371624,
        0.2311643660068512,
        -1.0736415386199951,
        29.283571243286133
      ],
      [
        -0.05991622060537338,
        1.068729281425476,
        0.23518379032611847,
        -111.51782989501953
      ],
      [
        0.0,
        0.0,
        0.0,
        1.0
      ]
    ],
    "dcmmeta_reorient_transform": [
      [
        0.0,
        -1.0,
        0.0,
        187.0
      ],
      [
        1.0,
        0.0,
        0.0,
        0.0
      ],
      [
        0.0,
        0.0,
        1.0,
        0.0
      ],
      [
        0.0,
        0.0,
        0.0,
        1.0
      ]
    ],
    "dcmmeta_shape": [
      188,
      188,
      46,
      150
    ],
    "dcmmeta_slice_dim": 2,
    "dcmmeta_version": 0.6,
    "global": {
      "const": {
        "AcquisitionMatrix": [
          188,
          0,
          0,
          188
        ],
        "AngioFlag": "N",
        "BitsAllocated": 16,
        "BitsStored": 12,
        "Columns": 1316,
        "EchoNumbers": 1,
        "EchoTime": 20.0,
        "EchoTrainLength": 1,
        "FlipAngle": 75.0,
        "HighBit": 11,
        "ImageOrientationPatient": [
          0.9970787865409,
          0.05332824067929,
          -0.0546808209171,
          -0.0647723057413,
          0.21096552709947,
          -0.9753451157332
        ],
        "ImagePositionPatient": [
          -667.98097657726,
          -235.84486219037,
          724.89059814474
        ],
        "ImageType": [
          "ORIGINAL",
          "PRIMARY",
          "M",
          "MB",
          "ND",
          "MOSAIC"
        ],
        "ImagedNucleus": "1H",
        "ImagingFrequency": 297.205738,
        "InPlanePhaseEncodingDirection": "COL",
        "LargestImagePixelValue": 4095,
        "MRAcquisitionType": "2D",
        "MagneticFieldStrength": 6.98,
        "Manufacturer": "SIEMENS",
        "ManufacturerModelName": "Investigational_Device_7T",
        "Modality": "MR",
        "NumberOfAverages": 1.0,
        "NumberOfPhaseEncodingSteps": 141,
        "PercentPhaseFieldOfView": 100.0,
        "PercentSampling": 100.0,
        "PerformedProcedureStepStartTime": "081242.234000",
        "PhotometricInterpretation": "MONOCHROME2",
        "PixelBandwidth": 1400.0,
        "PixelRepresentation": 0,
        "PixelSpacing": [
          1.0957447290421,
          1.0957447290421
        ],
        "ProtocolName": "cmrr_mbep2d_bold_AP_run10",
        "RepetitionTime": 2600.0,
        "Rows": 1316,
        "SAR": 0.03803040866123,
        "SamplesPerPixel": 1,
        "ScanOptions": [
          "PFP",
          "FS"
        ],
        "ScanningSequence": "EP",
        "SequenceName": "epfid2d1_188",
        "SequenceVariant": [
          "SK",
          "SS"
        ],
        "SeriesDescription": "cmrr_mbep2d_bold_AP_run10",
        "SeriesNumber": 38,
        "SeriesTime": "103345.875000",
        "SliceLocation": -48.171062132454,
        "SliceThickness": 1.1000000238419,
        "SmallestImagePixelValue": 0,
        "SoftwareVersions": "syngo MR B17",
        "SpacingBetweenSlices": 1.0999999909105,
        "SpecificCharacterSet": "ISO_IR 100",
        "StudyID": "1",
        "StudyTime": "081242.187000",
        "TransmitCoilName": "32Ch_Head_7T",
        "VariableFlipAngleFlag": "N",
        "WindowCenterWidthExplanation": "Algo1",
        "dBdt": 0.0
      },
      "slices": {}
    },
    "modality": "bold",
    "run_id": 9,
    "session_id": "SES02",
    "subject_id": "S01",
    "task_id": "auditory",
    "time": {
      "samples": {
        "AcquisitionNumber": [
          1,
          2,
          3,
          4,
          5,
          6,
          7,
          8,
          9,
          10,
          11,
          12,
          13,
          14,
          15,
          16,
          17,
          18,
          19,
          20,
          21,
          22,
          23,
          24,
          25,
          26,
          27,
          28,
          29,
          30,
          31,
          32,
          33,
          34,
          35,
          36,
          37,
          38,
          39,
          40,
          41,
          42,
          43,
          44,
          45,
          46,
          47,
          48,
          49,
          50,
          51,
          52,
          53,
          54,
          55,
          56,
          57,
          58,
          59,
          60,
          61,
          62,
          63,
          64,
          65,
          66,
          67,
          68,
          69,
          70,
          71,
          72,
          73,
          74,
          75,
          76,
          77,
          78,
          79,
          80,
          81,
          82,
          83,
          84,
          85,
          86,
          87,
          88,
          89,
          90,
          91,
          92,
          93,
          94,
          95,
          96,
          97,
          98,
          99,
          100,
          101,
          102,
          103,
          104,
          105,
          106,
          107,
          108,
          109,
          110,
          111,
          112,
          113,
          114,
          115,
          116,
          117,
          118,
          119,
          120,
          121,
          122,
          123,
          124,
          125,
          126,
          127,
          128,
          129,
          130,
          131,
          132,
          133,
          134,
          135,
          136,
          137,
          138,
          139,
          140,
          141,
          142,
          143,
          144,
          145,
          146,
          147,
          148,
          149,
          150
        ],
        "AcquisitionTime": [
          "103335.875000",
          "103338.485000",
          "103341.095000",
          "103343.707500",
          "103346.317500",
          "103348.927500",
          "103351.537500",
          "103354.147500",
          "103356.757500",
          "103359.370000",
          "103401.980000",
          "103404.590000",
          "103407.200000",
          "103409.810000",
          "103412.422500",
          "103415.032500",
          "103417.642500",
          "103420.252500",
          "103422.862500",
          "103425.472500",
          "103428.085000",
          "103430.695000",
          "103433.305000",
          "103435.915000",
          "103438.525000",
          "103441.135000",
          "103443.747500",
          "103446.357500",
          "103448.967500",
          "103451.577500",
          "103454.187500",
          "103456.800000",
          "103459.410000",
          "103502.020000",
          "103504.630000",
          "103507.240000",
          "103509.850000",
          "103512.462500",
          "103515.072500",
          "103517.682500",
          "103520.292500",
          "103522.902500",
          "103525.512500",
          "103528.125000",
          "103530.735000",
          "103533.345000",
          "103535.955000",
          "103538.565000",
          "103541.177500",
          "103543.787500",
          "103546.397500",
          "103549.007500",
          "103551.617500",
          "103554.227500",
          "103556.840000",
          "103559.450000",
          "103602.060000",
          "103604.670000",
          "103607.280000",
          "103609.890000",
          "103612.502500",
          "103615.112500",
          "103617.722500",
          "103620.332500",
          "103622.942500",
          "103625.555000",
          "103628.165000",
          "103630.775000",
          "103633.385000",
          "103635.995000",
          "103638.605000",
          "103641.217500",
          "103643.827500",
          "103646.437500",
          "103649.047500",
          "103651.657500",
          "103654.267500",
          "103656.880000",
          "103659.490000",
          "103702.100000",
          "103704.710000",
          "103707.320000",
          "103709.932500",
          "103712.542500",
          "103715.152500",
          "103717.762500",
          "103720.372500",
          "103722.982500",
          "103725.595000",
          "103728.205000",
          "103730.815000",
          "103733.425000",
          "103736.035000",
          "103738.647500",
          "103741.257500",
          "103743.867500",
          "103746.477500",
          "103749.087500",
          "103751.697500",
          "103754.310000",
          "103756.920000",
          "103759.530000",
          "103802.140000",
          "103804.750000",
          "103807.360000",
          "103809.972500",
          "103812.582500",
          "103815.192500",
          "103817.802500",
          "103820.412500",
          "103823.025000",
          "103825.635000",
          "103828.245000",
          "103830.855000",
          "103833.465000",
          "103836.075000",
          "103838.687500",
          "103841.297500",
          "103843.907500",
          "103846.517500",
          "103849.127500",
          "103851.737500",
          "103854.350000",
          "103856.960000",
          "103859.570000",
          "103902.180000",
          "103904.790000",
          "103907.402500",
          "103910.012500",
          "103912.622500",
          "103915.232500",
          "103917.842500",
          "103920.452500",
          "103923.065000",
          "103925.675000",
          "103928.285000",
          "103930.895000",
          "103933.505000",
          "103936.115000",
          "103938.727500",
          "103941.337500",
          "103943.947500",
          "103946.557500",
          "103949.167500",
          "103951.780000",
          "103954.390000",
          "103957.000000",
          "103959.610000",
          "104002.220000",
          "104004.830000"
        ],
        "ContentTime": [
          "103345.875000",
          "103346.875000",
          "103346.875000",
          "103348.875000",
          "103351.875000",
          "103354.375000",
          "103356.875000",
          "103359.375000",
          "103401.875000",
          "103404.875000",
          "103407.375000",
          "103409.875000",
          "103412.375000",
          "103414.875000",
          "103417.875000",
          "103420.375000",
          "103422.875000",
          "103425.359000",
          "103427.875000",
          "103430.875000",
          "103433.375000",
          "103435.875000",
          "103438.375000",
          "103440.875000",
          "103443.875000",
          "103446.375000",
          "103448.875000",
          "103451.375000",
          "103453.875000",
          "103456.875000",
          "103459.375000",
          "103501.875000",
          "103504.375000",
          "103506.875000",
          "103509.875000",
          "103512.375000",
          "103514.875000",
          "103517.375000",
          "103519.875000",
          "103522.875000",
          "103525.375000",
          "103527.859000",
          "103530.375000",
          "103532.875000",
          "103535.875000",
          "103538.375000",
          "103540.875000",
          "103543.375000",
          "103545.875000",
          "103548.875000",
          "103551.375000",
          "103553.875000",
          "103556.375000",
          "103558.875000",
          "103601.875000",
          "103604.375000",
          "103606.875000",
          "103609.375000",
          "103611.875000",
          "103614.875000",
          "103617.375000",
          "103619.875000",
          "103622.375000",
          "103624.875000",
          "103627.875000",
          "103630.375000",
          "103632.875000",
          "103635.375000",
          "103637.875000",
          "103640.875000",
          "103643.375000",
          "103645.875000",
          "103648.375000",
          "103650.875000",
          "103653.875000",
          "103656.375000",
          "103658.875000",
          "103701.375000",
          "103703.875000",
          "103706.875000",
          "103709.375000",
          "103711.875000",
          "103714.375000",
          "103716.875000",
          "103719.875000",
          "103722.375000",
          "103724.875000",
          "103727.375000",
          "103729.875000",
          "103732.875000",
          "103735.375000",
          "103737.859000",
          "103740.375000",
          "103742.875000",
          "103745.875000",
          "103748.375000",
          "103750.875000",
          "103753.375000",
          "103755.875000",
          "103758.875000",
          "103801.375000",
          "103803.875000",
          "103806.375000",
          "103808.875000",
          "103811.875000",
          "103814.375000",
          "103816.875000",
          "103819.375000",
          "103821.875000",
          "103824.875000",
          "103827.375000",
          "103829.875000",
          "103832.375000",
          "103834.875000",
          "103837.875000",
          "103840.375000",
          "103842.875000",
          "103845.375000",
          "103847.875000",
          "103850.875000",
          "103853.375000",
          "103855.875000",
          "103858.375000",
          "103900.875000",
          "103903.875000",
          "103906.375000",
          "103908.875000",
          "103911.375000",
          "103913.875000",
          "103916.875000",
          "103919.375000",
          "103921.875000",
          "103924.375000",
          "103926.875000",
          "103929.875000",
          "103932.375000",
          "103934.875000",
          "103937.375000",
          "103939.875000",
          "103942.875000",
          "103945.375000",
          "103947.875000",
          "103950.375000",
          "103952.875000",
          "103955.875000",
          "103958.375000",
          "104000.875000",
          "104003.375000",
          "104005.875000",
          "104008.406000"
        ],
        "InstanceCreationTime": [
          "103345.875000",
          "103346.875000",
          "103346.875000",
          "103348.875000",
          "103351.875000",
          "103354.375000",
          "103356.875000",
          "103359.375000",
          "103401.875000",
          "103404.875000",
          "103407.375000",
          "103409.875000",
          "103412.375000",
          "103414.875000",
          "103417.875000",
          "103420.375000",
          "103422.875000",
          "103425.359000",
          "103427.875000",
          "103430.875000",
          "103433.375000",
          "103435.875000",
          "103438.375000",
          "103440.875000",
          "103443.875000",
          "103446.375000",
          "103448.875000",
          "103451.375000",
          "103453.875000",
          "103456.875000",
          "103459.375000",
          "103501.875000",
          "103504.375000",
          "103506.875000",
          "103509.875000",
          "103512.375000",
          "103514.875000",
          "103517.375000",
          "103519.875000",
          "103522.875000",
          "103525.375000",
          "103527.859000",
          "103530.375000",
          "103532.875000",
          "103535.875000",
          "103538.375000",
          "103540.875000",
          "103543.375000",
          "103545.875000",
          "103548.875000",
          "103551.375000",
          "103553.875000",
          "103556.375000",
          "103558.875000",
          "103601.875000",
          "103604.375000",
          "103606.875000",
          "103609.375000",
          "103611.875000",
          "103614.875000",
          "103617.375000",
          "103619.875000",
          "103622.375000",
          "103624.875000",
          "103627.875000",
          "103630.375000",
          "103632.875000",
          "103635.375000",
          "103637.875000",
          "103640.875000",
          "103643.375000",
          "103645.875000",
          "103648.375000",
          "103650.875000",
          "103653.875000",
          "103656.375000",
          "103658.875000",
          "103701.375000",
          "103703.875000",
          "103706.875000",
          "103709.375000",
          "103711.875000",
          "103714.375000",
          "103716.875000",
          "103719.875000",
          "103722.375000",
          "103724.875000",
          "103727.375000",
          "103729.875000",
          "103732.875000",
          "103735.375000",
          "103737.859000",
          "103740.375000",
          "103742.875000",
          "103745.875000",
          "103748.375000",
          "103750.875000",
          "103753.375000",
          "103755.875000",
          "103758.875000",
          "103801.375000",
          "103803.875000",
          "103806.375000",
          "103808.875000",
          "103811.875000",
          "103814.375000",
          "103816.875000",
          "103819.375000",
          "103821.875000",
          "103824.875000",
          "103827.375000",
          "103829.875000",
          "103832.375000",
          "103834.875000",
          "103837.875000",
          "103840.375000",
          "103842.875000",
          "103845.375000",
          "103847.875000",
          "103850.875000",
          "103853.375000",
          "103855.875000",
          "103858.375000",
          "103900.875000",
          "103903.875000",
          "103906.375000",
          "103908.875000",
          "103911.375000",
          "103913.875000",
          "103916.875000",
          "103919.375000",
          "103921.875000",
          "103924.375000",
          "103926.875000",
          "103929.875000",
          "103932.375000",
          "103934.875000",
          "103937.375000",
          "103939.875000",
          "103942.875000",
          "103945.375000",
          "103947.875000",
          "103950.375000",
          "103952.875000",
          "103955.875000",
          "103958.375000",
          "104000.875000",
          "104003.375000",
          "104005.875000",
          "104008.406000"
        ],
        "InstanceNumber": [
          1,
          2,
          3,
          4,
          5,
          6,
          7,
          8,
          9,
          10,
          11,
          12,
          13,
          14,
          15,
          16,
          17,
          18,
          19,
          20,
          21,
          22,
          23,
          24,
          25,
          26,
          27,
          28,
          29,
          30,
          31,
          32,
          33,
          34,
          35,
          36,
          37,
          38,
          39,
          40,
          41,
          42,
          43,
          44,
          45,
          46,
          47,
          48,
          49,
          50,
          51,
          52,
          53,
          54,
          55,
          56,
          57,
          58,
          59,
          60,
          61,
          62,
          63,
          64,
          65,
          66,
          67,
          68,
          69,
          70,
          71,
          72,
          73,
          74,
          75,
          76,
          77,
          78,
          79,
          80,
          81,
          82,
          83,
          84,
          85,
          86,
          87,
          88,
          89,
          90,
          91,
          92,
          93,
          94,
          95,
          96,
          97,
          98,
          99,
          100,
          101,
          102,
          103,
          104,
          105,
          106,
          107,
          108,
          109,
          110,
          111,
          112,
          113,
          114,
          115,
          116,
          117,
          118,
          119,
          120,
          121,
          122,
          123,
          124,
          125,
          126,
          127,
          128,
          129,
          130,
          131,
          132,
          133,
          134,
          135,
          136,
          137,
          138,
          139,
          140,
          141,
          142,
          143,
          144,
          145,
          146,
          147,
          148,
          149,
          150
        ],
        "WindowCenter": [
          796.0,
          794.0,
          795.0,
          794.0,
          794.0,
          794.0,
          793.0,
          794.0,
          793.0,
          793.0,
          793.0,
          793.0,
          794.0,
          794.0,
          794.0,
          794.0,
          793.0,
          794.0,
          794.0,
          793.0,
          793.0,
          793.0,
          793.0,
          795.0,
          795.0,
          794.0,
          794.0,
          793.0,
          793.0,
          795.0,
          794.0,
          792.0,
          793.0,
          795.0,
          793.0,
          793.0,
          794.0,
          793.0,
          793.0,
          793.0,
          793.0,
          793.0,
          794.0,
          795.0,
          794.0,
          795.0,
          795.0,
          795.0,
          796.0,
          794.0,
          794.0,
          795.0,
          794.0,
          795.0,
          795.0,
          795.0,
          795.0,
          795.0,
          794.0,
          793.0,
          795.0,
          795.0,
          794.0,
          793.0,
          795.0,
          795.0,
          795.0,
          795.0,
          795.0,
          796.0,
          794.0,
          794.0,
          796.0,
          795.0,
          796.0,
          796.0,
          796.0,
          796.0,
          798.0,
          796.0,
          793.0,
          793.0,
          794.0,
          794.0,
          793.0,
          795.0,
          794.0,
          794.0,
          794.0,
          795.0,
          796.0,
          794.0,
          795.0,
          795.0,
          794.0,
          795.0,
          795.0,
          796.0,
          794.0,
          796.0,
          797.0,
          796.0,
          794.0,
          793.0,
          795.0,
          796.0,
          795.0,
          796.0,
          796.0,
          795.0,
          796.0,
          797.0,
          795.0,
          796.0,
          795.0,
          797.0,
          797.0,
          795.0,
          795.0,
          797.0,
          797.0,
          796.0,
          795.0,
          797.0,
          797.0,
          796.0,
          795.0,
          795.0,
          795.0,
          797.0,
          798.0,
          795.0,
          795.0,
          795.0,
          796.0,
          795.0,
          794.0,
          797.0,
          798.0,
          797.0,
          794.0,
          796.0,
          797.0,
          797.0,
          795.0,
          796.0,
          796.0,
          797.0,
          796.0,
          794.0
        ],
        "WindowWidth": [
          1782.0,
          1775.0,
          1776.0,
          1775.0,
          1773.0,
          1773.0,
          1770.0,
          1774.0,
          1770.0,
          1770.0,
          1770.0,
          1769.0,
          1776.0,
          1775.0,
          1773.0,
          1773.0,
          1772.0,
          1773.0,
          1774.0,
          1771.0,
          1771.0,
          1770.0,
          1770.0,
          1776.0,
          1776.0,
          1773.0,
          1774.0,
          1770.0,
          1770.0,
          1776.0,
          1773.0,
          1768.0,
          1772.0,
          1776.0,
          1770.0,
          1771.0,
          1772.0,
          1771.0,
          1770.0,
          1771.0,
          1771.0,
          1772.0,
          1775.0,
          1776.0,
          1772.0,
          1776.0,
          1776.0,
          1777.0,
          1781.0,
          1775.0,
          1774.0,
          1776.0,
          1774.0,
          1775.0,
          1777.0,
          1777.0,
          1776.0,
          1776.0,
          1772.0,
          1772.0,
          1778.0,
          1778.0,
          1773.0,
          1772.0,
          1775.0,
          1776.0,
          1778.0,
          1777.0,
          1776.0,
          1779.0,
          1775.0,
          1773.0,
          1778.0,
          1777.0,
          1779.0,
          1779.0,
          1780.0,
          1780.0,
          1785.0,
          1780.0,
          1771.0,
          1769.0,
          1774.0,
          1772.0,
          1771.0,
          1776.0,
          1773.0,
          1775.0,
          1774.0,
          1775.0,
          1780.0,
          1772.0,
          1775.0,
          1777.0,
          1773.0,
          1775.0,
          1778.0,
          1781.0,
          1773.0,
          1779.0,
          1783.0,
          1778.0,
          1773.0,
          1770.0,
          1775.0,
          1780.0,
          1777.0,
          1780.0,
          1780.0,
          1777.0,
          1779.0,
          1782.0,
          1776.0,
          1779.0,
          1778.0,
          1782.0,
          1784.0,
          1776.0,
          1776.0,
          1784.0,
          1781.0,
          1778.0,
          1776.0,
          1783.0,
          1782.0,
          1778.0,
          1777.0,
          1776.0,
          1776.0,
          1784.0,
          1787.0,
          1777.0,
          1775.0,
          1777.0,
          1779.0,
          1775.0,
          1773.0,
          1782.0,
          1786.0,
          1783.0,
          1773.0,
          1778.0,
          1783.0,
          1782.0,
          1776.0,
          1778.0,
          1778.0,
          1783.0,
          1779.0,
          1774.0
        ]
      },
      "slices": {}
    }
  },
  "dummy_trs": 0,
  "dvars_nstd": 79.25044286288592,
  "dvars_std": 1.0506523533557046,
  "dvars_vstd": 1.0089044293959728,
  "efc": 0.5571742410097315,
  "fber": 311.9120788574219,
  "fd_mean": 0.07609265689394855,
  "fd_num": 5,
  "fd_perc": 3.3333333333333335,
  "fwhm_avg": 3.0419698656349023,
  "fwhm_x": 2.80506026498261,
  "fwhm_y": 2.8375039528761206,
  "fwhm_z": 3.4833453790459767,
  "gcor": 0.00233861,
  "gsr_x": 0.0012106780195608735,
  "gsr_y": 0.03398281708359718,
  "provenance": {
    "md5sum": "eca239c09d4be553d5aef5014dc744b7",
    "settings": {
      "fd_thres": 0.2,
      "testing": false
    },
    "software": "mriqc",
    "version": "23.0.1",
    "webapi_port": null,
    "webapi_url": "https://mriqc.nimh.nih.gov/api/v1"
  },
  "size_t": 150,
  "size_x": 188,
  "size_y": 188,
  "size_z": 46,
  "snr": 1.946326978882398,
  "spacing_tr": 2.5999999046325684,
  "spacing_x": 1.0957447290420532,
  "spacing_y": 1.0957447290420532,
  "spacing_z": 1.100000023841858,
  "summary_bg_k": 69.01375413451069,
  "summary_bg_mad": 19.77791664893119,
  "summary_bg_mean": 69.91919708251953,
  "summary_bg_median": 42.56666946411133,
  "summary_bg_n": 1048347.0,
  "summary_bg_p05": 26.393333435058594,
  "summary_bg_p95": 198.22466888427704,
