{
  "aor": 0.0005988,
  "aqi": 0.012325346,
  "bids_meta": {
    "AcquisitionMatrixPE": 188,
    "AcquisitionNumber": 1,
    "AcquisitionTime": "09:32:34.867500",
    "BandwidthPerPixelPhaseEncode": 19.46,
    "BaseResolution": 188,
    "CogAtlasID": "TODO",
    "ConversionSoftware": "dcm2niix",
    "ConversionSoftwareVersion": "v1.0.20180606 GCC4.8.5",
    "DelayTime": 1.2,
    "DerivedVendorReportedEchoSpacing": 0.000820013,
    "DeviceSerialNumber": "18930",
    "DwellTime": 1.9e-06,
    "EchoTime": 0.02,
    "EffectiveEchoSpacing": 0.000273338,
    "FlipAngle": 75,
    "ImageComments": "Unaliased_MB2_PE2",
    "ImageOrientationPatientDICOM": [
      0.997079,
      0.0533282,
      -0.0546808,
      -0.0647723,
      0.210966,
      -0.975345
    ],
    "ImageType": [
      "ORIGINAL",
      "PRIMARY",
      "M",
      "MB",
      "ND",
      "MOSAIC"
    ],
    "InPlanePhaseEncodingDirectionDICOM": "COL",
    "InstitutionAddress": "Oxfordlaan_55_Maastricht_12C0A2_Limburg_NL_6229_EV",
    "InstitutionName": "Scannexus",
    "InstitutionalDepartmentName": "MRI_7T",
    "MRAcquisitionType": "2D",
    "MagneticFieldStrength": 6.98,
    "Manufacturer": "Siemens",
    "ManufacturersModelName": "Investigational_Device_7T",
    "Modality": "MR",
    "MultibandAccelerationFactor": 2,
    "ParallelReductionFactorInPlane": 3,
    "PartialFourier": 0.75,
    "PatientPosition": "HFS",
    "PercentPhaseFOV": 100,
    "PhaseEncodingDirection": "j",
    "PhaseEncodingSteps": 141,
    "PhaseResolution": 1,
    "PixelBandwidth": 1400,
    "ProcedureStepDescription": "FeDem_Faruk",
    "ProtocolName": "cmrr_mbep2d_bold_AP_run4",
    "PulseSequenceDetails": "%CustomerSeq%_cmrr_mbep2d_bold",
    "ReceiveCoilName": "32Ch_Head_7T",
    "ReconMatrixPE": 188,
    "RepetitionTime": 2.6,
    "SAR": 0.037717,
    "ScanOptions": "PFP_FS",
    "ScanningSequence": "EP",
    "SequenceName": "epfid2d1_188",
    "SequenceVariant": "SK_SS",
    "SeriesDescription": "cmrr_mbep2d_bold_AP_run4",
    "SeriesNumber": 20,
    "ShimSetting": [
      56,
      -76,
      427,
      415,
      -84,
      461,
      -48,
      47
    ],
    "SliceThickness": 1.1,
    "SliceTiming": [
      0,
      0.7325,
      0.06,
      0.7925,
      0.1225,
      0.855,
      0.1825,
      0.915,
      0.245,
      0.9775,
      0.305,
      1.0375,
      0.365,
      1.1,
      0.4275,
      1.16,
      0.4875,
      1.2225,
      0.55,
      1.2825,
      0.61,
      1.3425,
      0.6725,
      0,
      0.7325,
      0.06,
      0.7925,
      0.1225,
      0.855,
      0.1825,
      0.915,
      0.245,
      0.9775,
      0.305,
      1.0375,
      0.365,
      1.1,
      0.4275,
      1.16,
      0.4875,
      1.2225,
      0.55,
      1.2825,
      0.61,
      1.3425,
      0.6725
    ],
    "SoftwareVersions": "syngo_MR_B17",
    "SpacingBetweenSlices": 1.1,
    "StationName": "MRC18930",
    "TaskName": "auditory",
    "TotalReadoutTime": 0.0511141,
    "TxRefAmp": 170,
    "dataset": "ds001942",
    "dcmmeta_affine": [
      [
        -1.0925438404083252,
        -0.07097391039133072,
        0.04452543705701828,
        105.0876693725586
      ],
      [
        -0.0584341399371624,
        0.2311643660068512,
        -1.0736415386199951,
        29.283571243286133
      ],
      [
        -0.05991622060537338,
        1.068729281425476,
        0.23518379032611847,
        -111.51782989501953
      ],
      [
        0.0,
        0.0,
        0.0,
        1.0
      ]
    ],
    "dcmmeta_reorient_transform": [
      [
        0.0,
        -1.0,
        0.0,
        187.0
      ],
      [
        1.0,
        0.0,
        0.0,
        0.0
      ],
      [
        0.0,
        0.0,
        1.0,
        0.0
      ],
      [
        0.0,
        0.0,
        0.0,
        1.0
      ]
    ],
    "dcmmeta_shape": [
      188,
      188,
      46,
      150
    ],
    "dcmmeta_slice_dim": 2,
    "dcmmeta_version": 0.6,
    "global": {
      "const": {
        "AcquisitionMatrix": [
          188,
          0,
          0,
          188
        ],
        "AngioFlag": "N",
        "BitsAllocated": 16,
        "BitsStored": 12,
        "Columns": 1316,
        "EchoNumbers": 1,
        "EchoTime": 20.0,
        "EchoTrainLength": 1,
        "FlipAngle": 75.0,
        "HighBit": 11,
        "ImageOrientationPatient": [
          0.9970787865409,
          0.05332824067929,
          -0.0546808209171,
          -0.0647723057413,
          0.21096552709947,
          -0.9753451157332
        ],
        "ImagePositionPatient": [
          -667.98097657726,
          -235.84486219037,
          724.89059814474
        ],
        "ImageType": [
          "ORIGINAL",
          "PRIMARY",
          "M",
          "MB",
          "ND",
          "MOSAIC"
        ],
        "ImagedNucleus": "1H",
        "ImagingFrequency": 297.205714,
        "InPlanePhaseEncodingDirection": "COL",
        "LargestImagePixelValue": 4095,
        "MRAcquisitionType": "2D",
        "MagneticFieldStrength": 6.98,
        "Manufacturer": "SIEMENS",
        "ManufacturerModelName": "Investigational_Device_7T",
        "Modality": "MR",
        "NumberOfAverages": 1.0,
        "NumberOfPhaseEncodingSteps": 141,
        "PercentPhaseFieldOfView": 100.0,
        "PercentSampling": 100.0,
        "PerformedProcedureStepStartTime": "081242.234000",
        "PhotometricInterpretation": "MONOCHROME2",
        "PixelBandwidth": 1400.0,
        "PixelRepresentation": 0,
        "PixelSpacing": [
          1.0957447290421,
          1.0957447290421
        ],
        "ProtocolName": "cmrr_mbep2d_bold_AP_run4",
        "RepetitionTime": 2600.0,
        "Rows": 1316,
        "SAR": 0.0377169875352,
        "SamplesPerPixel": 1,
        "ScanOptions": [
          "PFP",
          "FS"
        ],
        "ScanningSequence": "EP",
        "SequenceName": "epfid2d1_188",
        "SequenceVariant": [
          "SK",
          "SS"
        ],
        "SeriesDescription": "cmrr_mbep2d_bold_AP_run4",
        "SeriesNumber": 20,
        "SeriesTime": "093243.921000",
        "SliceLocation": -48.171062132454,
        "SliceThickness": 1.1000000238419,
        "SmallestImagePixelValue": 0,
        "SoftwareVersions": "syngo MR B17",
        "SpacingBetweenSlices": 1.0999999909105,
        "SpecificCharacterSet": "ISO_IR 100",
        "StudyID": "1",
        "StudyTime": "081242.187000",
        "TransmitCoilName": "32Ch_Head_7T",
        "VariableFlipAngleFlag": "N",
        "WindowCenterWidthExplanation": "Algo1",
        "dBdt": 0.0
      },
      "slices": {}
    },
    "modality": "bold",
    "run_id": 3,
    "session_id": "SES02",
    "subject_id": "S01",
    "task_id": "auditory",
    "time": {
      "samples": {
        "AcquisitionNumber": [
          1,
          2,
          3,
          4,
          5,
          6,
          7,
          8,
          9,
          10,
          11,
          12,
          13,
          14,
          15,
          16,
          17,
          18,
          19,
          20,
          21,
          22,
          23,
          24,
          25,
          26,
          27,
          28,
          29,
          30,
          31,
          32,
          33,
          34,
          35,
          36,
          37,
          38,
          39,
          40,
          41,
          42,
          43,
          44,
          45,
          46,
          47,
          48,
          49,
          50,
          51,
          52,
          53,
          54,
          55,
          56,
          57,
          58,
          59,
          60,
          61,
          62,
          63,
          64,
          65,
          66,
          67,
          68,
          69,
          70,
          71,
          72,
          73,
          74,
          75,
          76,
          77,
          78,
          79,
          80,
          81,
          82,
          83,
          84,
          85,
          86,
          87,
          88,
          89,
          90,
          91,
          92,
          93,
          94,
          95,
          96,
          97,
          98,
          99,
          100,
          101,
          102,
          103,
          104,
          105,
          106,
          107,
          108,
          109,
          110,
          111,
          112,
          113,
          114,
          115,
          116,
          117,
          118,
          119,
          120,
          121,
          122,
          123,
          124,
          125,
          126,
          127,
          128,
          129,
          130,
          131,
          132,
          133,
          134,
          135,
          136,
          137,
          138,
          139,
          140,
          141,
          142,
          143,
          144,
          145,
          146,
          147,
          148,
          149,
          150
        ],
        "AcquisitionTime": [
          "093234.867500",
          "093237.477500",
          "093240.087500",
          "093242.697500",
          "093245.307500",
          "093247.920000",
          "093250.530000",
          "093253.140000",
          "093255.750000",
          "093258.360000",
          "093300.972500",
          "093303.582500",
          "093306.192500",
          "093308.802500",
          "093311.412500",
          "093314.022500",
          "093316.635000",
          "093319.245000",
          "093321.855000",
          "093324.465000",
          "093327.075000",
          "093329.685000",
          "093332.297500",
          "093334.907500",
          "093337.517500",
          "093340.127500",
          "093342.737500",
          "093345.350000",
          "093347.960000",
          "093350.570000",
          "093353.180000",
          "093355.790000",
          "093358.400000",
          "093401.012500",
          "093403.622500",
          "093406.232500",
          "093408.842500",
          "093411.452500",
          "093414.062500",
          "093416.675000",
          "093419.285000",
          "093421.895000",
          "093424.505000",
          "093427.115000",
          "093429.727500",
          "093432.337500",
          "093434.947500",
          "093437.557500",
          "093440.167500",
          "093442.777500",
          "093445.390000",
          "093448.000000",
          "093450.610000",
          "093453.220000",
          "093455.830000",
          "093458.440000",
          "093501.052500",
          "093503.662500",
          "093506.272500",
          "093508.882500",
          "093511.492500",
          "093514.105000",
          "093516.715000",
          "093519.325000",
          "093521.935000",
          "093524.545000",
          "093527.155000",
          "093529.767500",
          "093532.377500",
          "093534.987500",
          "093537.597500",
          "093540.207500",
          "093542.817500",
          "093545.430000",
          "093548.040000",
          "093550.650000",
          "093553.260000",
          "093555.870000",
          "093558.482500",
          "093601.092500",
          "093603.702500",
          "093606.312500",
          "093608.922500",
          "093611.532500",
          "093614.145000",
          "093616.755000",
          "093619.365000",
          "093621.975000",
          "093624.585000",
          "093627.195000",
          "093629.807500",
          "093632.417500",
          "093635.027500",
          "093637.637500",
          "093640.247500",
          "093642.860000",
          "093645.470000",
          "093648.080000",
          "093650.690000",
          "093653.300000",
          "093655.910000",
          "093658.522500",
          "093701.132500",
          "093703.742500",
          "093706.352500",
          "093708.962500",
          "093711.572500",
          "093714.185000",
          "093716.795000",
          "093719.405000",
          "093722.015000",
          "093724.625000",
          "093727.237500",
          "093729.847500",
          "093732.457500",
          "093735.067500",
          "093737.677500",
          "093740.287500",
          "093742.900000",
          "093745.510000",
          "093748.120000",
          "093750.730000",
          "093753.340000",
          "093755.950000",
          "093758.562500",
          "093801.172500",
          "093803.782500",
          "093806.392500",
          "093809.002500",
          "093811.615000",
          "093814.225000",
          "093816.835000",
          "093819.445000",
          "093822.055000",
          "093824.665000",
          "093827.277500",
          "093829.887500",
          "093832.497500",
          "093835.107500",
          "093837.717500",
          "093840.327500",
          "093842.940000",
          "093845.550000",
          "093848.160000",
          "093850.770000",
          "093853.380000",
          "093855.992500",
          "093858.602500",
          "093901.212500",
          "093903.822500"
        ],
        "ContentTime": [
          "093243.921000",
          "093244.921000",
          "093244.921000",
          "093246.921000",
          "093249.921000",
          "093252.421000",
          "093254.921000",
          "093257.421000",
          "093259.921000",
          "093302.921000",
          "093305.421000",
          "093307.921000",
          "093310.421000",
          "093312.921000",
          "093315.921000",
          "093318.421000",
          "093320.921000",
          "093323.421000",
          "093325.921000",
          "093328.921000",
          "093331.421000",
          "093333.921000",
          "093336.421000",
          "093338.921000",
          "093341.921000",
          "093344.421000",
          "093346.921000",
          "093349.421000",
          "093351.921000",
          "093354.921000",
          "093357.421000",
          "093359.921000",
          "093402.421000",
          "093404.921000",
          "093407.921000",
          "093410.421000",
          "093412.921000",
          "093415.421000",
          "093417.921000",
          "093420.921000",
          "093423.421000",
          "093425.921000",
          "093428.421000",
          "093430.921000",
          "093433.921000",
          "093436.421000",
          "093438.921000",
          "093441.421000",
          "093443.921000",
          "093446.921000",
          "093449.421000",
          "093451.921000",
          "093454.421000",
          "093456.921000",
          "093459.921000",
          "093502.421000",
          "093504.921000",
          "093507.421000",
          "093509.921000",
          "093512.921000",
          "093515.421000",
          "093517.921000",
          "093520.421000",
          "093522.921000",
          "093525.921000",
          "093528.421000",
          "093530.921000",
          "093533.421000",
          "093535.921000",
          "093538.921000",
          "093541.421000",
          "093543.921000",
          "093546.421000",
          "093548.921000",
          "093551.921000",
          "093554.421000",
          "093556.921000",
          "093559.421000",
          "093601.921000",
          "093604.921000",
          "093607.421000",
          "093609.921000",
          "093612.421000",
          "093614.921000",
          "093617.921000",
          "093620.421000",
          "093622.921000",
          "093625.421000",
          "093627.921000",
          "093630.921000",
          "093633.421000",
          "093635.921000",
          "093638.421000",
          "093640.921000",
          "093643.921000",
          "093646.421000",
          "093648.921000",
          "093651.421000",
          "093653.921000",
          "093656.921000",
          "093659.421000",
          "093701.921000",
          "093704.421000",
          "093706.921000",
          "093709.921000",
          "093712.421000",
          "093714.921000",
          "093717.421000",
          "093719.921000",
          "093722.921000",
          "093725.421000",
          "093727.921000",
          "093730.421000",
          "093732.921000",
          "093735.921000",
          "093738.421000",
          "093740.921000",
          "093743.421000",
          "093745.921000",
          "093748.921000",
          "093751.421000",
          "093753.921000",
          "093756.421000",
          "093758.921000",
          "093801.921000",
          "093804.421000",
          "093806.921000",
          "093809.421000",
          "093811.921000",
          "093814.921000",
          "093817.421000",
          "093819.921000",
          "093822.421000",
          "093824.921000",
          "093827.921000",
          "093830.421000",
          "093832.921000",
          "093835.421000",
          "093837.921000",
          "093840.921000",
          "093843.421000",
          "093845.921000",
          "093848.421000",
          "093850.921000",
          "093853.921000",
          "093856.421000",
          "093858.921000",
          "093901.421000",
          "093903.921000",
          "093906.468000"
        ],
        "InstanceCreationTime": [
          "093243.921000",
          "093244.921000",
          "093244.921000",
          "093246.921000",
          "093249.921000",
          "093252.421000",
          "093254.921000",
          "093257.421000",
          "093259.921000",
          "093302.921000",
          "093305.421000",
          "093307.921000",
          "093310.421000",
          "093312.921000",
          "093315.921000",
          "093318.421000",
          "093320.921000",
          "093323.421000",
          "093325.921000",
          "093328.921000",
          "093331.421000",
          "093333.921000",
          "093336.421000",
          "093338.921000",
          "093341.921000",
          "093344.421000",
          "093346.921000",
          "093349.421000",
          "093351.921000",
          "093354.921000",
          "093357.421000",
          "093359.921000",
          "093402.421000",
          "093404.921000",
          "093407.921000",
          "093410.421000",
          "093412.921000",
          "093415.421000",
          "093417.921000",
          "093420.921000",
          "093423.421000",
          "093425.921000",
          "093428.421000",
          "093430.921000",
          "093433.921000",
          "093436.421000",
          "093438.921000",
          "093441.421000",
          "093443.921000",
          "093446.921000",
          "093449.421000",
          "093451.921000",
          "093454.421000",
          "093456.921000",
          "093459.921000",
          "093502.421000",
          "093504.921000",
          "093507.421000",
          "093509.921000",
          "093512.921000",
          "093515.421000",
          "093517.921000",
          "093520.421000",
          "093522.921000",
          "093525.921000",
          "093528.421000",
          "093530.921000",
          "093533.421000",
          "093535.921000",
          "093538.921000",
          "093541.421000",
          "093543.921000",
          "093546.421000",
          "093548.921000",
          "093551.921000",
          "093554.421000",
          "093556.921000",
          "093559.421000",
          "093601.921000",
          "093604.921000",
          "093607.421000",
          "093609.921000",
          "093612.421000",
          "093614.921000",
          "093617.921000",
          "093620.421000",
          "093622.921000",
          "093625.421000",
          "093627.921000",
          "093630.921000",
          "093633.421000",
          "093635.921000",
          "093638.421000",
          "093640.921000",
          "093643.921000",
          "093646.421000",
          "093648.921000",
          "093651.421000",
          "093653.921000",
          "093656.921000",
          "093659.421000",
          "093701.921000",
          "093704.421000",
          "093706.921000",
          "093709.921000",
          "093712.421000",
          "093714.921000",
          "093717.421000",
          "093719.921000",
          "093722.921000",
          "093725.421000",
          "093727.921000",
          "093730.421000",
          "093732.921000",
          "093735.921000",
          "093738.421000",
          "093740.921000",
          "093743.421000",
          "093745.921000",
          "093748.921000",
          "093751.421000",
          "093753.921000",
          "093756.421000",
          "093758.921000",
          "093801.921000",
          "093804.421000",
          "093806.921000",
          "093809.421000",
          "093811.921000",
          "093814.921000",
          "093817.421000",
          "093819.921000",
          "093822.421000",
          "093824.921000",
          "093827.921000",
          "093830.421000",
          "093832.921000",
          "093835.421000",
          "093837.921000",
          "093840.921000",
          "093843.421000",
          "093845.921000",
          "093848.421000",
          "093850.921000",
          "093853.921000",
          "093856.421000",
          "093858.921000",
          "093901.421000",
          "093903.921000",
          "093906.468000"
        ],
        "InstanceNumber": [
          1,
          2,
          3,
          4,
          5,
          6,
          7,
          8,
          9,
          10,
          11,
          12,
          13,
          14,
          15,
          16,
          17,
          18,
          19,
          20,
          21,
          22,
          23,
          24,
          25,
          26,
          27,
          28,
          29,
          30,
          31,
          32,
          33,
          34,
          35,
          36,
          37,
          38,
          39,
          40,
          41,
          42,
          43,
          44,
          45,
          46,
          47,
          48,
          49,
          50,
          51,
          52,
          53,
          54,
          55,
          56,
          57,
          58,
          59,
          60,
          61,
          62,
          63,
          64,
          65,
          66,
          67,
          68,
          69,
          70,
          71,
          72,
          73,
          74,
          75,
          76,
          77,
          78,
          79,
          80,
          81,
          82,
          83,
          84,
          85,
          86,
          87,
          88,
          89,
          90,
          91,
          92,
          93,
          94,
          95,
          96,
          97,
          98,
          99,
          100,
          101,
          102,
          103,
          104,
          105,
          106,
          107,
          108,
          109,
          110,
          111,
          112,
          113,
          114,
          115,
          116,
          117,
          118,
          119,
          120,
          121,
          122,
          123,
          124,
          125,
          126,
          127,
          128,
          129,
          130,
          131,
          132,
          133,
          134,
          135,
          136,
          137,
          138,
          139,
          140,
          141,
          142,
          143,
          144,
          145,
          146,
          147,
          148,
          149,
          150
        ],
        "WindowCenter": [
          797.0,
          796.0,
          795.0,
          794.0,
          793.0,
          795.0,
          795.0,
          794.0,
          794.0,
          794.0,
          793.0,
          794.0,
          793.0,
          794.0,
          794.0,
          793.0,
          795.0,
          796.0,
          793.0,
          794.0,
          795.0,
          795.0,
          793.0,
          796.0,
          794.0,
          794.0,
          795.0,
          795.0,
          795.0,
          795.0,
          795.0,
          796.0,
          796.0,
          795.0,
          796.0,
          795.0,
          795.0,
          796.0,
          796.0,
          795.0,
          795.0,
          794.0,
          796.0,
          795.0,
          795.0,
          795.0,
          794.0,
          794.0,
          793.0,
          794.0,
          795.0,
          794.0,
          795.0,
          796.0,
          795.0,
          795.0,
          795.0,
          796.0,
          795.0,
          795.0,
          796.0,
          796.0,
          795.0,
          796.0,
          796.0,
          796.0,
          797.0,
          796.0,
          795.0,
          794.0,
          794.0,
          795.0,
          795.0,
          794.0,
          796.0,
          796.0,
          794.0,
          795.0,
          797.0,
          799.0,
          796.0,
          796.0,
          798.0,
          795.0,
          795.0,
          796.0,
          797.0,
          795.0,
          796.0,
          796.0,
          796.0,
          796.0,
          795.0,
          796.0,
          795.0,
          796.0,
          797.0,
          796.0,
          796.0,
          795.0,
          795.0,
          797.0,
          796.0,
          796.0,
          795.0,
          796.0,
          795.0,
          796.0,
          797.0,
          795.0,
          796.0,
          797.0,
          795.0,
          795.0,
          797.0,
          796.0,
          796.0,
          795.0,
          795.0,
          796.0,
          796.0,
          796.0,
          796.0,
          797.0,
          797.0,
          797.0,
          796.0,
          796.0,
          797.0,
          795.0,
          795.0,
          795.0,
          795.0,
          796.0,
          797.0,
          798.0,
          796.0,
          796.0,
          797.0,
          797.0,
          796.0,
          797.0,
          797.0,
          796.0,
          796.0,
          798.0,
          797.0,
          795.0,
          796.0,
          797.0
        ],
        "WindowWidth": [
          1784.0,
          1780.0,
          1777.0,
          1773.0,
          1772.0,
          1776.0,
          1775.0,
          1774.0,
          1773.0,
          1772.0,
          1771.0,
          1773.0,
          1770.0,
          1774.0,
          1774.0,
          1769.0,
          1775.0,
          1778.0,
          1771.0,
          1773.0,
          1777.0,
          1777.0,
          1771.0,
          1778.0,
          1772.0,
          1773.0,
          1776.0,
          1775.0,
          1776.0,
          1776.0,
          1777.0,
          1778.0,
          1778.0,
          1776.0,
          1778.0,
          1776.0,
          1776.0,
          1779.0,
          1778.0,
          1775.0,
          1775.0,
          1773.0,
          1778.0,
          1776.0,
          1777.0,
          1775.0,
          1773.0,
          1772.0,
          1770.0,
          1772.0,
          1775.0,
          1773.0,
          1775.0,
          1778.0,
          1776.0,
          1776.0,
          1775.0,
          1778.0,
          1776.0,
          1775.0,
          1778.0,
          1779.0,
          1777.0,
          1779.0,
          1779.0,
          1778.0,
          1781.0,
          1780.0,
          1776.0,
          1771.0,
          1774.0,
          1777.0,
          1775.0,
          1774.0,
          1780.0,
          1778.0,
          1774.0,
          1778.0,
          1783.0,
          1787.0,
          1778.0,
          1778.0,
          1786.0,
          1775.0,
          1774.0,
          1778.0,
          1780.0,
          1775.0,
          1777.0,
          1777.0,
          1779.0,
          1777.0,
          1776.0,
          1777.0,
          1776.0,
          1779.0,
          1781.0,
          1779.0,
          1777.0,
          1776.0,
          1777.0,
          1780.0,
          1779.0,
          1778.0,
          1775.0,
          1778.0,
          1777.0,
          1779.0,
          1782.0,
          1777.0,
          1780.0,
          1781.0,
          1776.0,
          1777.0,
          1781.0,
          1778.0,
          1778.0,
          1777.0,
          1776.0,
          1778.0,
          1780.0,
          1779.0,
          1780.0,
          1782.0,
          1781.0,
          1781.0,
          1778.0,
          1780.0,
          1782.0,
          1777.0,
          1774.0,
          1777.0,
          1776.0,
          1779.0,
          1783.0,
          1783.0,
          1780.0,
          1780.0,
          1783.0,
          1781.0,
          1780.0,
          1783.0,
          1781.0,
          1779.0,
          1780.0,
          1784.0,
          1781.0,
          1776.0,
          1780.0,
          1783.0
        ]
      },
      "slices": {}
    }
  },
  "dummy_trs": 0,
  "dvars_nstd": 78.87284600194629,
  "dvars_std": 1.0620184036241613,
  "dvars_vstd": 1.0175220011409396,
  "efc": 0.5571738661412224,
  "fber": 315.83416748046875,
  "fd_mean": 0.07485268762077378,
  "fd_num": 4,
  "fd_perc": 2.6666666666666665,
  "fwhm_avg": 3.020539863277923,
  "fwhm_x": 2.806821624128446,
  "fwhm_y": 2.8195253128901245,
  "fwhm_z": 3.435272652815198,
  "gcor": 0.00210908,
  "gsr_x": -0.0003284979029558599,
  "gsr_y": 0.034766681492328644,
  "provenance": {
    "md5sum": "fa4d2ba1679a23171a198ab5ce77ca0b",
    "settings": {
      "fd_thres": 0.2,
      "testing": false
    },
    "software": "mriqc",
    "version": "22.0.6",
    "webapi_port": null,
    "webapi_url": "https://mriqc.nimh.nih.gov/api/v1"
  },
  "size_t": 150,
  "size_x": 188,
  "size_y": 188,
  "size_z": 46,
  "snr": 1.9738462814510203,
  "spacing_tr": 2.5999999046325684,
  "spacing_x": 1.0957447290420532,
  "spacing_y": 1.0957447290420532,
  "spacing_z": 1.100000023841858,
  "summary_bg_k": 76.3921079995727,
  "summary_bg_mad": 19.876752460811282,
  "summary_bg_mean": 68.77691650390625,
  "summary_bg_median": 42.52000045776367,
  "summary_bg_n": 1047310.0,
  "summary_bg_p05": 26.373334884643555,
  "summary_bg_p95": 190.43333435058594,
